[Measurement conditions]
Sample identification,
Comment - 1,"5-50 for 5min"
Comment - 2,"Configuration=Chi-Phi-x-y-z stage 240 mm, Owner=User-1, Creation date=2012/9/10 12:01:05"
Comment - 3,"Goniometer=Theta/Theta; Minimum step size 2Theta:.0001; Minimum step size Omega:.0001"
Comment - 4,"Sample stage=Chi-Phi-x-y-z stage 240 mm; Minimum step size Phi:.01; Minimum step size Chi:.01; Minimum step size X:.01; Minimum step size Y:.01; Minimum step size Z:.001"
Comment - 5,"Diffractometer system=EMPYREAN"
Comment - 6,"Measurement program=C:\PANalytical\Data Collector\Programs\Phase-4-WU.xrdmp, Identifier={F5A8FFB3-DF66-4098-8257-F6B239A143CA}"
Anode material,Cu
K-Alpha1 wavelength,1.5405980
K-Alpha2 wavelength,1.5444260
Ratio K-Alpha2/K-Alpha1,0.500
Divergence slit,Fixed,0.76mm
Monochromator used,NO
Generator voltage, 40
Tube current, 40
File date and time,16/Ê®Ò»ÔÂ/2021 19:09
Unit cell,
h k l, 0 0 0
Scan axis,2Theta-Omega
Scan range,4.999999999,49.997478731
Scan step size,0.0131303
Omega offset,0.00000000
No. of points, 3427
Scan type,CONTINUOUS
Phi,0.0
Psi,0.0
X,0.0
Y,0.0
Z,9.34
Time per step,18.87
[Scan points]
Angle,Intensity
5.006565140,752.0
5.019695423,789.0
5.032825705,777.0
5.045955988,767.0
5.059086271,762.0
5.072216553,748.0
5.085346836,770.0
5.098477119,744.0
5.111607401,742.0
5.124737684,747.0
5.137867967,818.0
5.150998249,763.0
5.164128532,799.0
5.177258815,808.0
5.190389097,771.0
5.203519380,780.0
5.216649663,734.0
5.229779946,722.0
5.242910228,796.0
5.256040511,756.0
5.269170794,724.0
5.282301076,701.0
5.295431359,704.0
5.308561642,738.0
5.321691924,761.0
5.334822207,778.0
5.347952490,733.0
5.361082772,777.0
5.374213055,734.0
5.387343338,756.0
5.400473620,733.0
5.413603903,693.0
5.426734186,678.0
5.439864468,774.0
5.452994751,709.0
5.466125034,746.0
5.479255316,756.0
5.492385599,749.0
5.505515882,724.0
5.518646164,744.0
5.531776447,782.0
5.544906730,742.0
5.558037012,718.0
5.571167295,754.0
5.584297578,724.0
5.597427860,746.0
5.610558143,754.0
5.623688426,764.0
5.636818708,745.0
5.649948991,719.0
5.663079274,701.0
5.676209557,771.0
5.689339839,753.0
5.702470122,739.0
5.715600405,737.0
5.728730687,778.0
5.741860970,755.0
5.754991253,756.0
5.768121535,701.0
5.781251818,761.0
5.794382101,729.0
5.807512383,733.0
5.820642666,734.0
5.833772949,729.0
5.846903231,699.0
5.860033514,786.0
5.873163797,739.0
5.886294079,741.0
5.899424362,756.0
5.912554645,772.0
5.925684927,734.0
5.938815210,817.0
5.951945493,728.0
5.965075775,753.0
5.978206058,767.0
5.991336341,762.0
6.004466623,792.0
6.017596906,724.0
6.030727189,734.0
6.043857471,743.0
6.056987754,745.0
6.070118037,793.0
6.083248319,720.0
6.096378602,748.0
6.109508885,752.0
6.122639168,732.0
6.135769450,687.0
6.148899733,734.0
6.162030016,735.0
6.175160298,710.0
6.188290581,721.0
6.201420864,717.0
6.214551146,758.0
6.227681429,731.0
6.240811712,745.0
6.253941994,758.0
6.267072277,730.0
6.280202560,730.0
6.293332842,725.0
6.306463125,767.0
6.319593408,765.0
6.332723690,730.0
6.345853973,736.0
6.358984256,792.0
6.372114538,780.0
6.385244821,684.0
6.398375104,761.0
6.411505386,796.0
6.424635669,781.0
6.437765952,769.0
6.450896234,740.0
6.464026517,739.0
6.477156800,751.0
6.490287082,757.0
6.503417365,736.0
6.516547648,795.0
6.529677930,713.0
6.542808213,726.0
6.555938496,666.0
6.569068779,723.0
6.582199061,682.0
6.595329344,748.0
6.608459627,747.0
6.621589909,726.0
6.634720192,724.0
6.647850475,755.0
6.660980757,720.0
6.674111040,702.0
6.687241323,733.0
6.700371605,721.0
6.713501888,721.0
6.726632171,738.0
6.739762453,760.0
6.752892736,708.0
6.766023019,702.0
6.779153301,733.0
6.792283584,709.0
6.805413867,725.0
6.818544149,708.0
6.831674432,717.0
6.844804715,691.0
6.857934997,712.0
6.871065280,701.0
6.884195563,708.0
6.897325845,722.0
6.910456128,726.0
6.923586411,739.0
6.936716693,733.0
6.949846976,722.0
6.962977259,707.0
6.976107541,670.0
6.989237824,707.0
7.002368107,728.0
7.015498390,768.0
7.028628672,750.0
7.041758955,734.0
7.054889238,690.0
7.068019520,715.0
7.081149803,706.0
7.094280086,705.0
7.107410368,652.0
7.120540651,711.0
7.133670934,728.0
7.146801216,750.0
7.159931499,731.0
7.173061782,731.0
7.186192064,712.0
7.199322347,780.0
7.212452630,740.0
7.225582912,700.0
7.238713195,680.0
7.251843478,711.0
7.264973760,757.0
7.278104043,704.0
7.291234326,691.0
7.304364608,655.0
7.317494891,691.0
7.330625174,685.0
7.343755456,658.0
7.356885739,763.0
7.370016022,708.0
7.383146304,725.0
7.396276587,690.0
7.409406870,718.0
7.422537152,744.0
7.435667435,667.0
7.448797718,729.0
7.461928001,706.0
7.475058283,658.0
7.488188566,742.0
7.501318849,698.0
7.514449131,693.0
7.527579414,681.0
7.540709697,688.0
7.553839979,708.0
7.566970262,727.0
7.580100545,691.0
7.593230827,718.0
7.606361110,733.0
7.619491393,695.0
7.632621675,688.0
7.645751958,700.0
7.658882241,708.0
7.672012523,735.0
7.685142806,667.0
7.698273089,660.0
7.711403371,728.0
7.724533654,707.0
7.737663937,722.0
7.750794219,719.0
7.763924502,687.0
7.777054785,700.0
7.790185067,664.0
7.803315350,678.0
7.816445633,713.0
7.829575915,693.0
7.842706198,738.0
7.855836481,753.0
7.868966763,746.0
7.882097046,733.0
7.895227329,723.0
7.908357612,679.0
7.921487894,698.0
7.934618177,631.0
7.947748460,738.0
7.960878742,693.0
7.974009025,712.0
7.987139308,722.0
8.000269590,696.0
8.013399873,716.0
8.026530156,664.0
8.039660438,678.0
8.052790721,737.0
8.065921004,705.0
8.079051286,652.0
8.092181569,677.0
8.105311852,674.0
8.118442134,734.0
8.131572417,724.0
8.144702700,691.0
8.157832982,675.0
8.170963265,707.0
8.184093548,744.0
8.197223830,683.0
8.210354113,724.0
8.223484396,690.0
8.236614678,772.0
8.249744961,741.0
8.262875244,743.0
8.276005526,694.0
8.289135809,715.0
8.302266092,656.0
8.315396375,683.0
8.328526657,695.0
8.341656940,712.0
8.354787223,752.0
8.367917505,687.0
8.381047788,706.0
8.394178071,694.0
8.407308353,670.0
8.420438636,701.0
8.433568919,684.0
8.446699201,719.0
8.459829484,648.0
8.472959767,661.0
8.486090049,656.0
8.499220332,666.0
8.512350615,663.0
8.525480897,657.0
8.538611180,663.0
8.551741463,713.0
8.564871745,670.0
8.578002028,672.0
8.591132311,697.0
8.604262593,699.0
8.617392876,647.0
8.630523159,629.0
8.643653441,702.0
8.656783724,675.0
8.669914007,659.0
8.683044289,653.0
8.696174572,730.0
8.709304855,652.0
8.722435137,759.0
8.735565420,679.0
8.748695703,691.0
8.761825986,711.0
8.774956268,673.0
8.788086551,746.0
8.801216834,686.0
8.814347116,666.0
8.827477399,654.0
8.840607682,625.0
8.853737964,662.0
8.866868247,708.0
8.879998530,686.0
8.893128812,672.0
8.906259095,683.0
8.919389378,709.0
8.932519660,654.0
8.945649943,678.0
8.958780226,688.0
8.971910508,651.0
8.985040791,623.0
8.998171074,656.0
9.011301356,665.0
9.024431639,752.0
9.037561922,705.0
9.050692204,646.0
9.063822487,654.0
9.076952770,662.0
9.090083052,681.0
9.103213335,683.0
9.116343618,673.0
9.129473900,621.0
9.142604183,678.0
9.155734466,624.0
9.168864748,642.0
9.181995031,645.0
9.195125314,674.0
9.208255597,696.0
9.221385879,634.0
9.234516162,627.0
9.247646445,618.0
9.260776727,654.0
9.273907010,673.0
9.287037293,679.0
9.300167575,628.0
9.313297858,607.0
9.326428141,646.0
9.339558423,668.0
9.352688706,691.0
9.365818989,636.0
9.378949271,633.0
9.392079554,606.0
9.405209837,681.0
9.418340119,684.0
9.431470402,644.0
9.444600685,658.0
9.457730967,653.0
9.470861250,636.0
9.483991533,671.0
9.497121815,573.0
9.510252098,698.0
9.523382381,653.0
9.536512663,625.0
9.549642946,676.0
9.562773229,689.0
9.575903511,675.0
9.589033794,636.0
9.602164077,635.0
9.615294359,624.0
9.628424642,668.0
9.641554925,663.0
9.654685208,662.0
9.667815490,631.0
9.680945773,676.0
9.694076056,623.0
9.707206338,650.0
9.720336621,624.0
9.733466904,653.0
9.746597186,619.0
9.759727469,625.0
9.772857752,643.0
9.785988034,641.0
9.799118317,659.0
9.812248600,624.0
9.825378882,628.0
9.838509165,621.0
9.851639448,654.0
9.864769730,651.0
9.877900013,674.0
9.891030296,674.0
9.904160578,641.0
9.917290861,695.0
9.930421144,649.0
9.943551426,583.0
9.956681709,624.0
9.969811992,654.0
9.982942274,633.0
9.996072557,659.0
10.009202840,645.0
10.022333122,659.0
10.035463405,643.0
10.048593688,622.0
10.061723970,583.0
10.074854253,626.0
10.087984536,669.0
10.101114819,646.0
10.114245101,595.0
10.127375384,604.0
10.140505667,646.0
10.153635949,570.0
10.166766232,652.0
10.179896515,657.0
10.193026797,641.0
10.206157080,672.0
10.219287363,591.0
10.232417645,612.0
10.245547928,590.0
10.258678211,643.0
10.271808493,615.0
10.284938776,622.0
10.298069059,587.0
10.311199341,626.0
10.324329624,595.0
10.337459907,670.0
10.350590189,627.0
10.363720472,644.0
10.376850755,637.0
10.389981037,618.0
10.403111320,614.0
10.416241603,583.0
10.429371885,623.0
10.442502168,625.0
10.455632451,610.0
10.468762733,614.0
10.481893016,704.0
10.495023299,639.0
10.508153581,634.0
10.521283864,616.0
10.534414147,604.0
10.547544430,650.0
10.560674712,587.0
10.573804995,596.0
10.586935278,585.0
10.600065560,640.0
10.613195843,598.0
10.626326126,595.0
10.639456408,604.0
10.652586691,673.0
10.665716974,628.0
10.678847256,621.0
10.691977539,567.0
10.705107822,589.0
10.718238104,597.0
10.731368387,632.0
10.744498670,641.0
10.757628952,622.0
10.770759235,659.0
10.783889518,620.0
10.797019800,589.0
10.810150083,630.0
10.823280366,590.0
10.836410648,589.0
10.849540931,649.0
10.862671214,584.0
10.875801496,604.0
10.888931779,629.0
10.902062062,630.0
10.915192344,595.0
10.928322627,548.0
10.941452910,604.0
10.954583192,601.0
10.967713475,672.0
10.980843758,622.0
10.993974041,602.0
11.007104323,595.0
11.020234606,603.0
11.033364889,619.0
11.046495171,590.0
11.059625454,601.0
11.072755737,618.0
11.085886019,611.0
11.099016302,576.0
11.112146585,625.0
11.125276867,632.0
11.138407150,615.0
11.151537433,573.0
11.164667715,627.0
11.177797998,586.0
11.190928281,630.0
11.204058563,597.0
11.217188846,588.0
11.230319129,584.0
11.243449411,577.0
11.256579694,576.0
11.269709977,609.0
11.282840259,639.0
11.295970542,608.0
11.309100825,609.0
11.322231107,569.0
11.335361390,561.0
11.348491673,591.0
11.361621955,571.0
11.374752238,584.0
11.387882521,624.0
11.401012803,623.0
11.414143086,635.0
11.427273369,587.0
11.440403652,583.0
11.453533934,601.0
11.466664217,594.0
11.479794500,550.0
11.492924782,613.0
11.506055065,603.0
11.519185348,630.0
11.532315630,598.0
11.545445913,602.0
11.558576196,595.0
11.571706478,628.0
11.584836761,609.0
11.597967044,632.0
11.611097326,623.0
11.624227609,629.0
11.637357892,573.0
11.650488174,599.0
11.663618457,622.0
11.676748740,625.0
11.689879022,607.0
11.703009305,687.0
11.716139588,621.0
11.729269870,609.0
11.742400153,613.0
11.755530436,646.0
11.768660718,613.0
11.781791001,603.0
11.794921284,611.0
11.808051566,602.0
11.821181849,573.0
11.834312132,524.0
11.847442415,589.0
11.860572697,674.0
11.873702980,617.0
11.886833263,625.0
11.899963545,593.0
11.913093828,579.0
11.926224111,620.0
11.939354393,606.0
11.952484676,589.0
11.965614959,610.0
11.978745241,577.0
11.991875524,604.0
12.005005807,605.0
12.018136089,613.0
12.031266372,609.0
12.044396655,583.0
12.057526937,636.0
12.070657220,555.0
12.083787503,578.0
12.096917785,630.0
12.110048068,570.0
12.123178351,630.0
12.136308633,643.0
12.149438916,627.0
12.162569199,620.0
12.175699481,625.0
12.188829764,602.0
12.201960047,633.0
12.215090329,629.0
12.228220612,608.0
12.241350895,608.0
12.254481177,620.0
12.267611460,626.0
12.280741743,587.0
12.293872026,629.0
12.307002308,563.0
12.320132591,609.0
12.333262874,619.0
12.346393156,597.0
12.359523439,550.0
12.372653722,609.0
12.385784004,627.0
12.398914287,623.0
12.412044570,604.0
12.425174852,637.0
12.438305135,588.0
12.451435418,594.0
12.464565700,584.0
12.477695983,609.0
12.490826266,624.0
12.503956548,607.0
12.517086831,601.0
12.530217114,646.0
12.543347396,618.0
12.556477679,625.0
12.569607962,603.0
12.582738244,608.0
12.595868527,598.0
12.608998810,645.0
12.622129092,636.0
12.635259375,646.0
12.648389658,694.0
12.661519940,632.0
12.674650223,642.0
12.687780506,613.0
12.700910788,635.0
12.714041071,607.0
12.727171354,626.0
12.740301637,594.0
12.753431919,663.0
12.766562202,634.0
12.779692485,652.0
12.792822767,623.0
12.805953050,602.0
12.819083333,604.0
12.832213615,549.0
12.845343898,584.0
12.858474181,598.0
12.871604463,565.0
12.884734746,630.0
12.897865029,566.0
12.910995311,621.0
12.924125594,614.0
12.937255877,626.0
12.950386159,613.0
12.963516442,600.0
12.976646725,565.0
12.989777007,618.0
13.002907290,561.0
13.016037573,557.0
13.029167855,624.0
13.042298138,605.0
13.055428421,621.0
13.068558703,575.0
13.081688986,618.0
13.094819269,598.0
13.107949551,568.0
13.121079834,578.0
13.134210117,607.0
13.147340399,561.0
13.160470682,587.0
13.173600965,566.0
13.186731248,602.0
13.199861530,607.0
13.212991813,627.0
13.226122096,569.0
13.239252378,612.0
13.252382661,566.0
13.265512944,605.0
13.278643226,586.0
13.291773509,560.0
13.304903792,588.0
13.318034074,635.0
13.331164357,614.0
13.344294640,614.0
13.357424922,588.0
13.370555205,534.0
13.383685488,583.0
13.396815770,628.0
13.409946053,586.0
13.423076336,619.0
13.436206618,595.0
13.449336901,651.0
13.462467184,657.0
13.475597466,638.0
13.488727749,696.0
13.501858032,704.0
13.514988314,740.0
13.528118597,751.0
13.541248880,741.0
13.554379162,702.0
13.567509445,813.0
13.580639728,838.0
13.593770010,835.0
13.606900293,836.0
13.620030576,900.0
13.633160859,853.0
13.646291141,884.0
13.659421424,886.0
13.672551707,1001.0
13.685681989,1002.0
13.698812272,1068.0
13.711942555,1040.0
13.725072837,1098.0
13.738203120,1164.0
13.751333403,1184.0
13.764463685,1275.0
13.777593968,1417.0
13.790724251,1581.0
13.803854533,1655.0
13.816984816,1861.0
13.830115099,1970.0
13.843245381,2085.0
13.856375664,2345.0
13.869505947,2706.0
13.882636229,2980.0
13.895766512,3355.0
13.908896795,3720.0
13.922027077,4448.0
13.935157360,5151.0
13.948287643,6122.0
13.961417925,7304.0
13.974548208,8697.0
13.987678491,10424.0
14.000808773,12505.0
14.013939056,14032.0
14.027069339,14470.0
14.040199621,12942.0
14.053329904,10557.0
14.066460187,8133.0
14.079590470,5690.0
14.092720752,3848.0
14.105851035,2581.0
14.118981318,1926.0
14.132111600,1587.0
14.145241883,1412.0
14.158372166,1177.0
14.171502448,1133.0
14.184632731,999.0
14.197763014,1012.0
14.210893296,999.0
14.224023579,960.0
14.237153862,931.0
14.250284144,865.0
14.263414427,769.0
14.276544710,791.0
14.289674992,768.0
14.302805275,808.0
14.315935558,702.0
14.329065840,743.0
14.342196123,725.0
14.355326406,747.0
14.368456688,708.0
14.381586971,664.0
14.394717254,691.0
14.407847536,616.0
14.420977819,682.0
14.434108102,639.0
14.447238384,687.0
14.460368667,612.0
14.473498950,699.0
14.486629232,627.0
14.499759515,650.0
14.512889798,642.0
14.526020081,649.0
14.539150363,583.0
14.552280646,632.0
14.565410929,611.0
14.578541211,600.0
14.591671494,615.0
14.604801777,607.0
14.617932059,643.0
14.631062342,617.0
14.644192625,600.0
14.657322907,624.0
14.670453190,612.0
14.683583473,591.0
14.696713755,665.0
14.709844038,624.0
14.722974321,599.0
14.736104603,636.0
14.749234886,624.0
14.762365169,557.0
14.775495451,620.0
14.788625734,550.0
14.801756017,569.0
14.814886299,593.0
14.828016582,596.0
14.841146865,603.0
14.854277147,612.0
14.867407430,589.0
14.880537713,594.0
14.893667995,615.0
14.906798278,570.0
14.919928561,611.0
14.933058844,590.0
14.946189126,627.0
14.959319409,579.0
14.972449692,584.0
14.985579974,548.0
14.998710257,543.0
15.011840540,584.0
15.024970822,632.0
15.038101105,578.0
15.051231388,589.0
15.064361670,576.0
15.077491953,533.0
15.090622236,578.0
15.103752518,596.0
15.116882801,586.0
15.130013084,584.0
15.143143366,565.0
15.156273649,546.0
15.169403932,522.0
15.182534214,616.0
15.195664497,576.0
15.208794780,560.0
15.221925062,592.0
15.235055345,581.0
15.248185628,649.0
15.261315910,580.0
15.274446193,568.0
15.287576476,516.0
15.300706758,582.0
15.313837041,607.0
15.326967324,568.0
15.340097606,596.0
15.353227889,589.0
15.366358172,526.0
15.379488455,562.0
15.392618737,558.0
15.405749020,566.0
15.418879303,593.0
15.432009585,602.0
15.445139868,519.0
15.458270151,576.0
15.471400433,545.0
15.484530716,542.0
15.497660999,590.0
15.510791281,566.0
15.523921564,548.0
15.537051847,531.0
15.550182129,527.0
15.563312412,545.0
15.576442695,550.0
15.589572977,549.0
15.602703260,540.0
15.615833543,578.0
15.628963825,597.0
15.642094108,537.0
15.655224391,537.0
15.668354673,542.0
15.681484956,562.0
15.694615239,566.0
15.707745521,552.0
15.720875804,579.0
15.734006087,580.0
15.747136369,566.0
15.760266652,571.0
15.773396935,505.0
15.786527217,500.0
15.799657500,523.0
15.812787783,559.0
15.825918066,548.0
15.839048348,576.0
15.852178631,563.0
15.865308914,538.0
15.878439196,547.0
15.891569479,508.0
15.904699762,522.0
15.917830044,524.0
15.930960327,532.0
15.944090610,521.0
15.957220892,589.0
15.970351175,533.0
15.983481458,516.0
15.996611740,529.0
16.009742023,561.0
16.022872306,557.0
16.036002588,500.0
16.049132871,564.0
16.062263154,579.0
16.075393436,504.0
16.088523719,559.0
16.101654002,573.0
16.114784284,524.0
16.127914567,512.0
16.141044850,528.0
16.154175132,560.0
16.167305415,574.0
16.180435698,565.0
16.193565980,551.0
16.206696263,543.0
16.219826546,547.0
16.232956828,504.0
16.246087111,527.0
16.259217394,526.0
16.272347677,514.0
16.285477959,509.0
16.298608242,535.0
16.311738525,520.0
16.324868807,544.0
16.337999090,514.0
16.351129373,505.0
16.364259655,570.0
16.377389938,554.0
16.390520221,547.0
16.403650503,489.0
16.416780786,557.0
16.429911069,540.0
16.443041351,557.0
16.456171634,581.0
16.469301917,575.0
16.482432199,505.0
16.495562482,541.0
16.508692765,526.0
16.521823047,565.0
16.534953330,503.0
16.548083613,519.0
16.561213895,544.0
16.574344178,508.0
16.587474461,541.0
16.600604743,520.0
16.613735026,539.0
16.626865309,477.0
16.639995591,529.0
16.653125874,537.0
16.666256157,554.0
16.679386439,514.0
16.692516722,544.0
16.705647005,486.0
16.718777288,524.0
16.731907570,518.0
16.745037853,532.0
16.758168136,538.0
16.771298418,502.0
16.784428701,522.0
16.797558984,512.0
16.810689266,532.0
16.823819549,470.0
16.836949832,554.0
16.850080114,573.0
16.863210397,539.0
16.876340680,534.0
16.889470962,517.0
16.902601245,486.0
16.915731528,558.0
16.928861810,536.0
16.941992093,520.0
16.955122376,525.0
16.968252658,546.0
16.981382941,540.0
16.994513224,488.0
17.007643506,508.0
17.020773789,511.0
17.033904072,504.0
17.047034354,496.0
17.060164637,527.0
17.073294920,517.0
17.086425202,504.0
17.099555485,512.0
17.112685768,505.0
17.125816050,569.0
17.138946333,509.0
17.152076616,553.0
17.165206899,505.0
17.178337181,511.0
17.191467464,555.0
17.204597747,485.0
17.217728029,502.0
17.230858312,511.0
17.243988595,519.0
17.257118877,475.0
17.270249160,504.0
17.283379443,528.0
17.296509725,544.0
17.309640008,497.0
17.322770291,544.0
17.335900573,497.0
17.349030856,511.0
17.362161139,523.0
17.375291421,529.0
17.388421704,502.0
17.401551987,556.0
17.414682269,538.0
17.427812552,482.0
17.440942835,512.0
17.454073117,503.0
17.467203400,500.0
17.480333683,517.0
17.493463965,507.0
17.506594248,466.0
17.519724531,515.0
17.532854813,571.0
17.545985096,538.0
17.559115379,431.0
17.572245661,496.0
17.585375944,459.0
17.598506227,505.0
17.611636510,543.0
17.624766792,506.0
17.637897075,518.0
17.651027358,511.0
17.664157640,512.0
17.677287923,498.0
17.690418206,456.0
17.703548488,541.0
17.716678771,534.0
17.729809054,479.0
17.742939336,484.0
17.756069619,424.0
17.769199902,481.0
17.782330184,473.0
17.795460467,490.0
17.808590750,498.0
17.821721032,523.0
17.834851315,459.0
17.847981598,517.0
17.861111880,505.0
17.874242163,490.0
17.887372446,519.0
17.900502728,488.0
17.913633011,491.0
17.926763294,498.0
17.939893576,501.0
17.953023859,513.0
17.966154142,474.0
17.979284424,533.0
17.992414707,509.0
18.005544990,481.0
18.018675273,510.0
18.031805555,458.0
18.044935838,470.0
18.058066121,470.0
18.071196403,507.0
18.084326686,492.0
18.097456969,538.0
18.110587251,491.0
18.123717534,495.0
18.136847817,447.0
18.149978099,477.0
18.163108382,459.0
18.176238665,495.0
18.189368947,485.0
18.202499230,486.0
18.215629513,527.0
18.228759795,484.0
18.241890078,491.0
18.255020361,478.0
18.268150643,480.0
18.281280926,480.0
18.294411209,497.0
18.307541491,515.0
18.320671774,504.0
18.333802057,474.0
18.346932339,530.0
18.360062622,481.0
18.373192905,451.0
18.386323187,461.0
18.399453470,471.0
18.412583753,484.0
18.425714035,458.0
18.438844318,487.0
18.451974601,459.0
18.465104884,483.0
18.478235166,493.0
18.491365449,485.0
18.504495732,458.0
18.517626014,471.0
18.530756297,500.0
18.543886580,507.0
18.557016862,523.0
18.570147145,441.0
18.583277428,476.0
18.596407710,457.0
18.609537993,489.0
18.622668276,450.0
18.635798558,476.0
18.648928841,520.0
18.662059124,495.0
18.675189406,488.0
18.688319689,499.0
18.701449972,495.0
18.714580254,481.0
18.727710537,475.0
18.740840820,461.0
18.753971102,442.0
18.767101385,515.0
18.780231668,499.0
18.793361950,487.0
18.806492233,494.0
18.819622516,492.0
18.832752798,494.0
18.845883081,459.0
18.859013364,449.0
18.872143646,510.0
18.885273929,469.0
18.898404212,486.0
18.911534495,495.0
18.924664777,491.0
18.937795060,495.0
18.950925343,467.0
18.964055625,512.0
18.977185908,517.0
18.990316191,460.0
19.003446473,477.0
19.016576756,456.0
19.029707039,487.0
19.042837321,421.0
19.055967604,472.0
19.069097887,481.0
19.082228169,443.0
19.095358452,461.0
19.108488735,468.0
19.121619017,474.0
19.134749300,467.0
19.147879583,531.0
19.161009865,479.0
19.174140148,466.0
19.187270431,515.0
19.200400713,476.0
19.213530996,478.0
19.226661279,473.0
19.239791561,473.0
19.252921844,463.0
19.266052127,458.0
19.279182409,459.0
19.292312692,466.0
19.305442975,473.0
19.318573257,464.0
19.331703540,453.0
19.344833823,445.0
19.357964106,491.0
19.371094388,473.0
19.384224671,457.0
19.397354954,477.0
19.410485236,475.0
19.423615519,442.0
19.436745802,467.0
19.449876084,502.0
19.463006367,440.0
19.476136650,486.0
19.489266932,461.0
19.502397215,481.0
19.515527498,424.0
19.528657780,483.0
19.541788063,446.0
19.554918346,446.0
19.568048628,471.0
19.581178911,442.0
19.594309194,443.0
19.607439476,463.0
19.620569759,463.0
19.633700042,513.0
19.646830324,480.0
19.659960607,477.0
19.673090890,479.0
19.686221172,518.0
19.699351455,483.0
19.712481738,491.0
19.725612020,535.0
19.738742303,514.0
19.751872586,525.0
19.765002868,563.0
19.778133151,556.0
19.791263434,497.0
19.804393717,598.0
19.817523999,612.0
19.830654282,622.0
19.843784565,640.0
19.856914847,696.0
19.870045130,697.0
19.883175413,703.0
19.896305695,669.0
19.909435978,688.0
19.922566261,635.0
19.935696543,636.0
19.948826826,558.0
19.961957109,507.0
19.975087391,567.0
19.988217674,562.0
20.001347957,515.0
20.014478239,492.0
20.027608522,524.0
20.040738805,467.0
20.053869087,461.0
20.066999370,493.0
20.080129653,492.0
20.093259935,450.0
20.106390218,459.0
20.119520501,444.0
20.132650783,531.0
20.145781066,470.0
20.158911349,420.0
20.172041631,489.0
20.185171914,498.0
20.198302197,507.0
20.211432479,480.0
20.224562762,448.0
20.237693045,487.0
20.250823328,508.0
20.263953610,469.0
20.277083893,477.0
20.290214176,511.0
20.303344458,478.0
20.316474741,472.0
20.329605024,460.0
20.342735306,442.0
20.355865589,521.0
20.368995872,502.0
20.382126154,461.0
20.395256437,473.0
20.408386720,451.0
20.421517002,491.0
20.434647285,451.0
20.447777568,468.0
20.460907850,462.0
20.474038133,432.0
20.487168416,413.0
20.500298698,459.0
20.513428981,470.0
20.526559264,453.0
20.539689546,486.0
20.552819829,473.0
20.565950112,457.0
20.579080394,438.0
20.592210677,453.0
20.605340960,417.0
20.618471242,472.0
20.631601525,463.0
20.644731808,434.0
20.657862090,455.0
20.670992373,470.0
20.684122656,474.0
20.697252939,419.0
20.710383221,442.0
20.723513504,422.0
20.736643787,420.0
20.749774069,443.0
20.762904352,477.0
20.776034635,529.0
20.789164917,458.0
20.802295200,507.0
20.815425483,457.0
20.828555765,474.0
20.841686048,478.0
20.854816331,436.0
20.867946613,454.0
20.881076896,461.0
20.894207179,488.0
20.907337461,441.0
20.920467744,477.0
20.933598027,436.0
20.946728309,446.0
20.959858592,410.0
20.972988875,455.0
20.986119157,444.0
20.999249440,455.0
21.012379723,480.0
21.025510005,450.0
21.038640288,436.0
21.051770571,459.0
21.064900853,465.0
21.078031136,438.0
21.091161419,464.0
21.104291702,479.0
21.117421984,470.0
21.130552267,451.0
21.143682550,465.0
21.156812832,462.0
21.169943115,421.0
21.183073398,476.0
21.196203680,490.0
21.209333963,439.0
21.222464246,467.0
21.235594528,440.0
21.248724811,454.0
21.261855094,433.0
21.274985376,480.0
21.288115659,450.0
21.301245942,475.0
21.314376224,484.0
21.327506507,474.0
21.340636790,473.0
21.353767072,457.0
21.366897355,479.0
21.380027638,451.0
21.393157920,485.0
21.406288203,452.0
21.419418486,488.0
21.432548768,452.0
21.445679051,446.0
21.458809334,455.0
21.471939616,511.0
21.485069899,465.0
21.498200182,477.0
21.511330464,450.0
21.524460747,472.0
21.537591030,463.0
21.550721313,461.0
21.563851595,434.0
21.576981878,459.0
21.590112161,478.0
21.603242443,460.0
21.616372726,416.0
21.629503009,432.0
21.642633291,466.0
21.655763574,461.0
21.668893857,443.0
21.682024139,450.0
21.695154422,477.0
21.708284705,430.0
21.721414987,424.0
21.734545270,474.0
21.747675553,484.0
21.760805835,434.0
21.773936118,434.0
21.787066401,450.0
21.800196683,456.0
21.813326966,406.0
21.826457249,463.0
21.839587531,473.0
21.852717814,499.0
21.865848097,446.0
21.878978379,471.0
21.892108662,486.0
21.905238945,494.0
21.918369227,426.0
21.931499510,420.0
21.944629793,467.0
21.957760075,434.0
21.970890358,473.0
21.984020641,452.0
21.997150924,426.0
22.010281206,460.0
22.023411489,434.0
22.036541772,428.0
22.049672054,425.0
22.062802337,484.0
22.075932620,432.0
22.089062902,386.0
22.102193185,433.0
22.115323468,462.0
22.128453750,465.0
22.141584033,470.0
22.154714316,474.0
22.167844598,440.0
22.180974881,455.0
22.194105164,430.0
22.207235446,439.0
22.220365729,485.0
22.233496012,461.0
22.246626294,444.0
22.259756577,425.0
22.272886860,455.0
22.286017142,440.0
22.299147425,478.0
22.312277708,451.0
22.325407990,483.0
22.338538273,415.0
22.351668556,411.0
22.364798838,436.0
22.377929121,475.0
22.391059404,462.0
22.404189686,450.0
22.417319969,454.0
22.430450252,436.0
22.443580535,397.0
22.456710817,454.0
22.469841100,430.0
22.482971383,455.0
22.496101665,454.0
22.509231948,422.0
22.522362231,445.0
22.535492513,450.0
22.548622796,450.0
22.561753079,430.0
22.574883361,470.0
22.588013644,451.0
22.601143927,435.0
22.614274209,462.0
22.627404492,453.0
22.640534775,476.0
22.653665057,453.0
22.666795340,424.0
22.679925623,459.0
22.693055905,454.0
22.706186188,425.0
22.719316471,484.0
22.732446753,464.0
22.745577036,428.0
22.758707319,438.0
22.771837601,445.0
22.784967884,474.0
22.798098167,436.0
22.811228449,491.0
22.824358732,464.0
22.837489015,454.0
22.850619297,461.0
22.863749580,457.0
22.876879863,416.0
22.890010146,423.0
22.903140428,417.0
22.916270711,398.0
22.929400994,438.0
22.942531276,434.0
22.955661559,440.0
22.968791842,446.0
22.981922124,460.0
22.995052407,412.0
23.008182690,450.0
23.021312972,425.0
23.034443255,445.0
23.047573538,424.0
23.060703820,459.0
23.073834103,449.0
23.086964386,452.0
23.100094668,509.0
23.113224951,447.0
23.126355234,416.0
23.139485516,454.0
23.152615799,481.0
23.165746082,436.0
23.178876364,392.0
23.192006647,455.0
23.205136930,462.0
23.218267212,461.0
23.231397495,472.0
23.244527778,427.0
23.257658060,445.0
23.270788343,474.0
23.283918626,435.0
23.297048908,422.0
23.310179191,445.0
23.323309474,437.0
23.336439757,419.0
23.349570039,429.0
23.362700322,487.0
23.375830605,426.0
23.388960887,472.0
23.402091170,446.0
23.415221453,434.0
23.428351735,465.0
23.441482018,405.0
23.454612301,437.0
23.467742583,459.0
23.480872866,489.0
23.494003149,483.0
23.507133431,462.0
23.520263714,488.0
23.533393997,453.0
23.546524279,436.0
23.559654562,469.0
23.572784845,447.0
23.585915127,476.0
23.599045410,449.0
23.612175693,415.0
23.625305975,443.0
23.638436258,484.0
23.651566541,426.0
23.664696823,456.0
23.677827106,444.0
23.690957389,450.0
23.704087671,482.0
23.717217954,432.0
23.730348237,448.0
23.743478519,448.0
23.756608802,458.0
23.769739085,453.0
23.782869368,473.0
23.795999650,455.0
23.809129933,449.0
23.822260216,467.0
23.835390498,455.0
23.848520781,484.0
23.861651064,475.0
23.874781346,472.0
23.887911629,438.0
23.901041912,452.0
23.914172194,491.0
23.927302477,466.0
23.940432760,445.0
23.953563042,453.0
23.966693325,430.0
23.979823608,462.0
23.992953890,450.0
24.006084173,474.0
24.019214456,460.0
24.032344738,435.0
24.045475021,461.0
24.058605304,424.0
24.071735586,475.0
24.084865869,472.0
24.097996152,487.0
24.111126434,484.0
24.124256717,473.0
24.137387000,493.0
24.150517282,507.0
24.163647565,516.0
24.176777848,510.0
24.189908130,555.0
24.203038413,570.0
24.216168696,573.0
24.229298979,612.0
24.242429261,673.0
24.255559544,740.0
24.268689827,824.0
24.281820109,870.0
24.294950392,985.0
24.308080675,1039.0
24.321210957,1272.0
24.334341240,1401.0
24.347471523,1700.0
24.360601805,1906.0
24.373732088,2108.0
24.386862371,2229.0
24.399992653,2302.0
24.413122936,2258.0
24.426253219,2208.0
24.439383501,2111.0
24.452513784,1846.0
24.465644067,1736.0
24.478774349,1503.0
24.491904632,1296.0
24.505034915,1039.0
24.518165197,979.0
24.531295480,821.0
24.544425763,748.0
24.557556045,706.0
24.570686328,667.0
24.583816611,597.0
24.596946893,547.0
24.610077176,507.0
24.623207459,549.0
24.636337742,529.0
24.649468024,486.0
24.662598307,506.0
24.675728590,462.0
24.688858872,490.0
24.701989155,487.0
24.715119438,470.0
24.728249720,515.0
24.741380003,475.0
24.754510286,471.0
24.767640568,470.0
24.780770851,446.0
24.793901134,453.0
24.807031416,431.0
24.820161699,448.0
24.833291982,450.0
24.846422264,443.0
24.859552547,462.0
24.872682830,456.0
24.885813112,448.0
24.898943395,474.0
24.912073678,469.0
24.925203960,490.0
24.938334243,424.0
24.951464526,420.0
24.964594808,439.0
24.977725091,459.0
24.990855374,462.0
25.003985656,463.0
25.017115939,457.0
25.030246222,433.0
25.043376504,426.0
25.056506787,458.0
25.069637070,468.0
25.082767353,449.0
25.095897635,466.0
25.109027918,459.0
25.122158201,396.0
25.135288483,421.0
25.148418766,435.0
25.161549049,493.0
25.174679331,463.0
25.187809614,454.0
25.200939897,465.0
25.214070179,422.0
25.227200462,407.0
25.240330745,454.0
25.253461027,444.0
25.266591310,402.0
25.279721593,462.0
25.292851875,442.0
25.305982158,429.0
25.319112441,430.0
25.332242723,404.0
25.345373006,426.0
25.358503289,422.0
25.371633571,415.0
25.384763854,457.0
25.397894137,481.0
25.411024419,465.0
25.424154702,473.0
25.437284985,442.0
25.450415267,428.0
25.463545550,426.0
25.476675833,461.0
25.489806115,458.0
25.502936398,438.0
25.516066681,466.0
25.529196964,458.0
25.542327246,429.0
25.555457529,435.0
25.568587812,396.0
25.581718094,438.0
25.594848377,439.0
25.607978660,444.0
25.621108942,457.0
25.634239225,431.0
25.647369508,439.0
25.660499790,444.0
25.673630073,422.0
25.686760356,437.0
25.699890638,434.0
25.713020921,442.0
25.726151204,414.0
25.739281486,443.0
25.752411769,471.0
25.765542052,462.0
25.778672334,476.0
25.791802617,453.0
25.804932900,460.0
25.818063182,425.0
25.831193465,448.0
25.844323748,431.0
25.857454030,507.0
25.870584313,458.0
25.883714596,491.0
25.896844878,494.0
25.909975161,451.0
25.923105444,425.0
25.936235726,452.0
25.949366009,438.0
25.962496292,436.0
25.975626575,402.0
25.988756857,474.0
26.001887140,464.0
26.015017423,476.0
26.028147705,419.0
26.041277988,480.0
26.054408271,462.0
26.067538553,454.0
26.080668836,453.0
26.093799119,486.0
26.106929401,466.0
26.120059684,444.0
26.133189967,465.0
26.146320249,448.0
26.159450532,479.0
26.172580815,503.0
26.185711097,484.0
26.198841380,530.0
26.211971663,502.0
26.225101945,468.0
26.238232228,472.0
26.251362511,527.0
26.264492793,512.0
26.277623076,482.0
26.290753359,507.0
26.303883641,546.0
26.317013924,541.0
26.330144207,546.0
26.343274489,573.0
26.356404772,594.0
26.369535055,601.0
26.382665337,650.0
26.395795620,623.0
26.408925903,665.0
26.422056186,718.0
26.435186468,705.0
26.448316751,773.0
26.461447034,810.0
26.474577316,829.0
26.487707599,933.0
26.500837882,938.0
26.513968164,968.0
26.527098447,959.0
26.540228730,944.0
26.553359012,953.0
26.566489295,900.0
26.579619578,851.0
26.592749860,866.0
26.605880143,785.0
26.619010426,722.0
26.632140708,682.0
26.645270991,638.0
26.658401274,665.0
26.671531556,562.0
26.684661839,614.0
26.697792122,528.0
26.710922404,549.0
26.724052687,543.0
26.737182970,492.0
26.750313252,471.0
26.763443535,493.0
26.776573818,511.0
26.789704100,504.0
26.802834383,444.0
26.815964666,431.0
26.829094948,480.0
26.842225231,478.0
26.855355514,468.0
26.868485797,435.0
26.881616079,447.0
26.894746362,499.0
26.907876645,441.0
26.921006927,457.0
26.934137210,482.0
26.947267493,482.0
26.960397775,462.0
26.973528058,472.0
26.986658341,480.0
26.999788623,464.0
27.012918906,420.0
27.026049189,427.0
27.039179471,469.0
27.052309754,435.0
27.065440037,466.0
27.078570319,429.0
27.091700602,392.0
27.104830885,368.0
27.117961167,419.0
27.131091450,446.0
27.144221733,456.0
27.157352015,444.0
27.170482298,459.0
27.183612581,404.0
27.196742863,437.0
27.209873146,410.0
27.223003429,422.0
27.236133711,432.0
27.249263994,478.0
27.262394277,458.0
27.275524559,429.0
27.288654842,444.0
27.301785125,439.0
27.314915408,484.0
27.328045690,459.0
27.341175973,484.0
27.354306256,481.0
27.367436538,476.0
27.380566821,439.0
27.393697104,444.0
27.406827386,447.0
27.419957669,435.0
27.433087952,428.0
27.446218234,464.0
27.459348517,449.0
27.472478800,447.0
27.485609082,413.0
27.498739365,424.0
27.511869648,456.0
27.524999930,437.0
27.538130213,445.0
27.551260496,432.0
27.564390778,459.0
27.577521061,475.0
27.590651344,481.0
27.603781626,490.0
27.616911909,480.0
27.630042192,449.0
27.643172474,451.0
27.656302757,467.0
27.669433040,472.0
27.682563322,464.0
27.695693605,521.0
27.708823888,468.0
27.721954171,468.0
27.735084453,517.0
27.748214736,499.0
27.761345019,508.0
27.774475301,475.0
27.787605584,473.0
27.800735867,496.0
27.813866149,507.0
27.826996432,527.0
27.840126715,470.0
27.853256997,498.0
27.866387280,545.0
27.879517563,561.0
27.892647845,554.0
27.905778128,595.0
27.918908411,561.0
27.932038693,593.0
27.945168976,643.0
27.958299259,602.0
27.971429541,694.0
27.984559824,686.0
27.997690107,739.0
28.010820389,779.0
28.023950672,843.0
28.037080955,906.0
28.050211237,1065.0
28.063341520,1192.0
28.076471803,1302.0
28.089602085,1546.0
28.102732368,1742.0
28.115862651,2149.0
28.128992933,2581.0
28.142123216,3020.0
28.155253499,3721.0
28.168383782,5046.0
28.181514064,6135.0
28.194644347,7424.0
28.207774630,7818.0
28.220904912,7408.0
28.234035195,6681.0
28.247165478,6030.0
28.260295760,5453.0
28.273426043,5234.0
28.286556326,4614.0
28.299686608,3911.0
28.312816891,2980.0
28.325947174,2376.0
28.339077456,1706.0
28.352207739,1393.0
28.365338022,1155.0
28.378468304,1023.0
28.391598587,876.0
28.404728870,815.0
28.417859152,772.0
28.430989435,700.0
28.444119718,668.0
28.457250000,678.0
28.470380283,645.0
28.483510566,567.0
28.496640848,572.0
28.509771131,607.0
28.522901414,545.0
28.536031696,540.0
28.549161979,534.0
28.562292262,509.0
28.575422544,476.0
28.588552827,513.0
28.601683110,509.0
28.614813393,503.0
28.627943675,477.0
28.641073958,470.0
28.654204241,462.0
28.667334523,447.0
28.680464806,444.0
28.693595089,489.0
28.706725371,452.0
28.719855654,458.0
28.732985937,428.0
28.746116219,423.0
28.759246502,434.0
28.772376785,447.0
28.785507067,414.0
28.798637350,424.0
28.811767633,428.0
28.824897915,421.0
28.838028198,445.0
28.851158481,450.0
28.864288763,404.0
28.877419046,436.0
28.890549329,398.0
28.903679611,407.0
28.916809894,421.0
28.929940177,396.0
28.943070459,452.0
28.956200742,406.0
28.969331025,409.0
28.982461307,447.0
28.995591590,437.0
29.008721873,422.0
29.021852155,411.0
29.034982438,394.0
29.048112721,436.0
29.061243004,424.0
29.074373286,388.0
29.087503569,407.0
29.100633852,424.0
29.113764134,404.0
29.126894417,424.0
29.140024700,425.0
29.153154982,397.0
29.166285265,384.0
29.179415548,362.0
29.192545830,424.0
29.205676113,408.0
29.218806396,362.0
29.231936678,434.0
29.245066961,408.0
29.258197244,404.0
29.271327526,359.0
29.284457809,373.0
29.297588092,377.0
29.310718374,412.0
29.323848657,416.0
29.336978940,374.0
29.350109222,403.0
29.363239505,377.0
29.376369788,367.0
29.389500070,360.0
29.402630353,365.0
29.415760636,379.0
29.428890918,378.0
29.442021201,350.0
29.455151484,383.0
29.468281766,377.0
29.481412049,384.0
29.494542332,394.0
29.507672615,374.0
29.520802897,391.0
29.533933180,377.0
29.547063463,395.0
29.560193745,373.0
29.573324028,395.0
29.586454311,400.0
29.599584593,369.0
29.612714876,396.0
29.625845159,380.0
29.638975441,366.0
29.652105724,374.0
29.665236007,399.0
29.678366289,384.0
29.691496572,347.0
29.704626855,354.0
29.717757137,393.0
29.730887420,381.0
29.744017703,351.0
29.757147985,354.0
29.770278268,358.0
29.783408551,381.0
29.796538833,351.0
29.809669116,382.0
29.822799399,419.0
29.835929681,374.0
29.849059964,344.0
29.862190247,330.0
29.875320529,366.0
29.888450812,386.0
29.901581095,364.0
29.914711377,388.0
29.927841660,369.0
29.940971943,363.0
29.954102226,357.0
29.967232508,369.0
29.980362791,327.0
29.993493074,342.0
30.006623356,353.0
30.019753639,356.0
30.032883922,372.0
30.046014204,381.0
30.059144487,400.0
30.072274770,381.0
30.085405052,374.0
30.098535335,376.0
30.111665618,349.0
30.124795900,381.0
30.137926183,338.0
30.151056466,377.0
30.164186748,351.0
30.177317031,379.0
30.190447314,406.0
30.203577596,312.0
30.216707879,391.0
30.229838162,392.0
30.242968444,363.0
30.256098727,373.0
30.269229010,375.0
30.282359292,383.0
30.295489575,359.0
30.308619858,401.0
30.321750140,321.0
30.334880423,361.0
30.348010706,359.0
30.361140988,338.0
30.374271271,348.0
30.387401554,351.0
30.400531837,381.0
30.413662119,350.0
30.426792402,332.0
30.439922685,393.0
30.453052967,346.0
30.466183250,344.0
30.479313533,360.0
30.492443815,352.0
30.505574098,374.0
30.518704381,406.0
30.531834663,369.0
30.544964946,403.0
30.558095229,397.0
30.571225511,357.0
30.584355794,385.0
30.597486077,356.0
30.610616359,412.0
30.623746642,362.0
30.636876925,347.0
30.650007207,383.0
30.663137490,371.0
30.676267773,389.0
30.689398055,380.0
30.702528338,361.0
30.715658621,375.0
30.728788903,376.0
30.741919186,357.0
30.755049469,352.0
30.768179751,341.0
30.781310034,389.0
30.794440317,353.0
30.807570600,381.0
30.820700882,363.0
30.833831165,366.0
30.846961448,388.0
30.860091730,370.0
30.873222013,361.0
30.886352296,359.0
30.899482578,355.0
30.912612861,408.0
30.925743144,349.0
30.938873426,369.0
30.952003709,381.0
30.965133992,331.0
30.978264274,364.0
30.991394557,362.0
31.004524840,366.0
31.017655122,362.0
31.030785405,331.0
31.043915688,384.0
31.057045970,341.0
31.070176253,332.0
31.083306536,338.0
31.096436818,322.0
31.109567101,417.0
31.122697384,378.0
31.135827666,343.0
31.148957949,372.0
31.162088232,335.0
31.175218514,344.0
31.188348797,339.0
31.201479080,318.0
31.214609362,345.0
31.227739645,400.0
31.240869928,336.0
31.254000211,350.0
31.267130493,341.0
31.280260776,340.0
31.293391059,340.0
31.306521341,357.0
31.319651624,391.0
31.332781907,371.0
31.345912189,379.0
31.359042472,366.0
31.372172755,402.0
31.385303037,406.0
31.398433320,380.0
31.411563603,384.0
31.424693885,388.0
31.437824168,386.0
31.450954451,477.0
31.464084733,445.0
31.477215016,427.0
31.490345299,461.0
31.503475581,461.0
31.516605864,486.0
31.529736147,558.0
31.542866429,612.0
31.555996712,646.0
31.569126995,766.0
31.582257277,876.0
31.595387560,1046.0
31.608517843,1117.0
31.621648125,1199.0
31.634778408,1194.0
31.647908691,1151.0
31.661038973,1094.0
31.674169256,1068.0
31.687299539,988.0
31.700429822,900.0
31.713560104,927.0
31.726690387,847.0
31.739820670,734.0
31.752950952,686.0
31.766081235,580.0
31.779211518,502.0
31.792341800,510.0
31.805472083,444.0
31.818602366,426.0
31.831732648,407.0
31.844862931,376.0
31.857993214,392.0
31.871123496,354.0
31.884253779,373.0
31.897384062,374.0
31.910514344,372.0
31.923644627,361.0
31.936774910,340.0
31.949905192,319.0
31.963035475,347.0
31.976165758,347.0
31.989296040,358.0
32.002426323,323.0
32.015556606,354.0
32.028686888,342.0
32.041817171,329.0
32.054947454,338.0
32.068077736,344.0
32.081208019,340.0
32.094338302,334.0
32.107468584,354.0
32.120598867,319.0
32.133729150,312.0
32.146859433,332.0
32.159989715,359.0
32.173119998,355.0
32.186250281,316.0
32.199380563,322.0
32.212510846,320.0
32.225641129,333.0
32.238771411,296.0
32.251901694,332.0
32.265031977,331.0
32.278162259,313.0
32.291292542,330.0
32.304422825,317.0
32.317553107,331.0
32.330683390,352.0
32.343813673,346.0
32.356943955,310.0
32.370074238,326.0
32.383204521,341.0
32.396334803,323.0
32.409465086,345.0
32.422595369,341.0
32.435725651,348.0
32.448855934,333.0
32.461986217,291.0
32.475116499,347.0
32.488246782,312.0
32.501377065,310.0
32.514507347,348.0
32.527637630,339.0
32.540767913,289.0
32.553898195,333.0
32.567028478,347.0
32.580158761,333.0
32.593289044,339.0
32.606419326,325.0
32.619549609,311.0
32.632679892,313.0
32.645810174,330.0
32.658940457,309.0
32.672070740,312.0
32.685201022,324.0
32.698331305,372.0
32.711461588,314.0
32.724591870,323.0
32.737722153,286.0
32.750852436,323.0
32.763982718,298.0
32.777113001,291.0
32.790243284,296.0
32.803373566,318.0
32.816503849,335.0
32.829634132,302.0
32.842764414,355.0
32.855894697,320.0
32.869024980,346.0
32.882155262,322.0
32.895285545,321.0
32.908415828,303.0
32.921546110,333.0
32.934676393,327.0
32.947806676,326.0
32.960936958,353.0
32.974067241,295.0
32.987197524,336.0
33.000327806,296.0
33.013458089,331.0
33.026588372,306.0
33.039718655,324.0
33.052848937,343.0
33.065979220,295.0
33.079109503,312.0
33.092239785,333.0
33.105370068,323.0
33.118500351,299.0
33.131630633,349.0
33.144760916,324.0
33.157891199,348.0
33.171021481,358.0
33.184151764,342.0
33.197282047,321.0
33.210412329,324.0
33.223542612,345.0
33.236672895,302.0
33.249803177,282.0
33.262933460,322.0
33.276063743,317.0
33.289194025,319.0
33.302324308,296.0
33.315454591,321.0
33.328584873,334.0
33.341715156,378.0
33.354845439,318.0
33.367975721,302.0
33.381106004,339.0
33.394236287,325.0
33.407366569,331.0
33.420496852,336.0
33.433627135,362.0
33.446757417,327.0
33.459887700,324.0
33.473017983,318.0
33.486148266,351.0
33.499278548,341.0
33.512408831,346.0
33.525539114,334.0
33.538669396,353.0
33.551799679,348.0
33.564929962,337.0
33.578060244,365.0
33.591190527,395.0
33.604320810,366.0
33.617451092,375.0
33.630581375,376.0
33.643711658,378.0
33.656841940,418.0
33.669972223,399.0
33.683102506,389.0
33.696232788,416.0
33.709363071,474.0
33.722493354,425.0
33.735623636,445.0
33.748753919,453.0
33.761884202,462.0
33.775014484,448.0
33.788144767,418.0
33.801275050,432.0
33.814405332,440.0
33.827535615,439.0
33.840665898,440.0
33.853796180,398.0
33.866926463,378.0
33.880056746,362.0
33.893187028,381.0
33.906317311,350.0
33.919447594,365.0
33.932577877,365.0
33.945708159,372.0
33.958838442,345.0
33.971968725,349.0
33.985099007,332.0
33.998229290,368.0
34.011359573,355.0
34.024489855,327.0
34.037620138,375.0
34.050750421,315.0
34.063880703,323.0
34.077010986,324.0
34.090141269,309.0
34.103271551,309.0
34.116401834,297.0
34.129532117,326.0
34.142662399,342.0
34.155792682,331.0
34.168922965,307.0
34.182053247,310.0
34.195183530,349.0
34.208313813,327.0
34.221444095,311.0
34.234574378,302.0
34.247704661,339.0
34.260834943,272.0
34.273965226,314.0
34.287095509,328.0
34.300225791,351.0
34.313356074,300.0
34.326486357,272.0
34.339616640,287.0
34.352746922,323.0
34.365877205,304.0
34.379007488,303.0
34.392137770,330.0
34.405268053,310.0
34.418398336,317.0
34.431528618,320.0
34.444658901,333.0
34.457789184,327.0
34.470919466,327.0
34.484049749,297.0
34.497180032,316.0
34.510310314,315.0
34.523440597,295.0
34.536570880,279.0
34.549701162,277.0
34.562831445,316.0
34.575961728,287.0
34.589092010,335.0
34.602222293,336.0
34.615352576,360.0
34.628482858,334.0
34.641613141,327.0
34.654743424,348.0
34.667873706,363.0
34.681003989,437.0
34.694134272,448.0
34.707264554,498.0
34.720394837,535.0
34.733525120,568.0
34.746655402,511.0
34.759785685,568.0
34.772915968,520.0
34.786046251,573.0
34.799176533,522.0
34.812306816,518.0
34.825437099,498.0
34.838567381,477.0
34.851697664,466.0
34.864827947,439.0
34.877958229,420.0
34.891088512,402.0
34.904218795,373.0
34.917349077,330.0
34.930479360,330.0
34.943609643,337.0
34.956739925,311.0
34.969870208,308.0
34.983000491,309.0
34.996130773,322.0
35.009261056,304.0
35.022391339,289.0
35.035521621,308.0
35.048651904,274.0
35.061782187,262.0
35.074912469,297.0
35.088042752,274.0
35.101173035,258.0
35.114303317,316.0
35.127433600,280.0
35.140563883,273.0
35.153694165,343.0
35.166824448,293.0
35.179954731,300.0
35.193085013,313.0
35.206215296,311.0
35.219345579,312.0
35.232475862,308.0
35.245606144,273.0
35.258736427,260.0
35.271866710,292.0
35.284996992,294.0
35.298127275,303.0
35.311257558,280.0
35.324387840,299.0
35.337518123,301.0
35.350648406,278.0
35.363778688,310.0
35.376908971,286.0
35.390039254,288.0
35.403169536,271.0
35.416299819,296.0
35.429430102,280.0
35.442560384,260.0
35.455690667,283.0
35.468820950,269.0
35.481951232,279.0
35.495081515,258.0
35.508211798,289.0
35.521342080,284.0
35.534472363,285.0
35.547602646,288.0
35.560732928,271.0
35.573863211,299.0
35.586993494,301.0
35.600123776,305.0
35.613254059,306.0
35.626384342,296.0
35.639514624,259.0
35.652644907,273.0
35.665775190,294.0
35.678905473,286.0
35.692035755,295.0
35.705166038,255.0
35.718296321,295.0
35.731426603,276.0
35.744556886,279.0
35.757687169,291.0
35.770817451,289.0
35.783947734,311.0
35.797078017,318.0
35.810208299,268.0
35.823338582,273.0
35.836468865,302.0
35.849599147,298.0
35.862729430,261.0
35.875859713,262.0
35.888989995,257.0
35.902120278,276.0
35.915250561,236.0
35.928380843,289.0
35.941511126,261.0
35.954641409,279.0
35.967771691,280.0
35.980901974,305.0
35.994032257,281.0
36.007162539,279.0
36.020292822,272.0
36.033423105,231.0
36.046553387,269.0
36.059683670,295.0
36.072813953,266.0
36.085944235,294.0
36.099074518,268.0
36.112204801,286.0
36.125335084,280.0
36.138465366,290.0
36.151595649,272.0
36.164725932,236.0
36.177856214,259.0
36.190986497,267.0
36.204116780,281.0
36.217247062,268.0
36.230377345,306.0
36.243507628,246.0
36.256637910,286.0
36.269768193,260.0
36.282898476,245.0
36.296028758,284.0
36.309159041,266.0
36.322289324,297.0
36.335419606,271.0
36.348549889,267.0
36.361680172,282.0
36.374810454,289.0
36.387940737,270.0
36.401071020,257.0
36.414201302,265.0
36.427331585,298.0
36.440461868,273.0
36.453592150,286.0
36.466722433,299.0
36.479852716,287.0
36.492982998,278.0
36.506113281,240.0
36.519243564,245.0
36.532373846,260.0
36.545504129,256.0
36.558634412,286.0
36.571764695,273.0
36.584894977,272.0
36.598025260,236.0
36.611155543,286.0
36.624285825,305.0
36.637416108,259.0
36.650546391,258.0
36.663676673,324.0
36.676806956,234.0
36.689937239,285.0
36.703067521,278.0
36.716197804,280.0
36.729328087,298.0
36.742458369,278.0
36.755588652,291.0
36.768718935,283.0
36.781849217,277.0
36.794979500,257.0
36.808109783,279.0
36.821240065,247.0
36.834370348,280.0
36.847500631,286.0
36.860630913,234.0
36.873761196,242.0
36.886891479,299.0
36.900021761,292.0
36.913152044,273.0
36.926282327,222.0
36.939412609,257.0
36.952542892,290.0
36.965673175,279.0
36.978803457,258.0
36.991933740,263.0
37.005064023,301.0
37.018194306,276.0
37.031324588,267.0
37.044454871,239.0
37.057585154,260.0
37.070715436,282.0
37.083845719,246.0
37.096976002,263.0
37.110106284,292.0
37.123236567,277.0
37.136366850,270.0
37.149497132,278.0
37.162627415,277.0
37.175757698,302.0
37.188887980,259.0
37.202018263,284.0
37.215148546,263.0
37.228278828,237.0
37.241409111,275.0
37.254539394,232.0
37.267669676,278.0
37.280799959,261.0
37.293930242,290.0
37.307060524,284.0
37.320190807,225.0
37.333321090,281.0
37.346451372,279.0
37.359581655,286.0
37.372711938,303.0
37.385842220,291.0
37.398972503,285.0
37.412102786,286.0
37.425233069,287.0
37.438363351,307.0
37.451493634,285.0
37.464623917,286.0
37.477754199,297.0
37.490884482,317.0
37.504014765,298.0
37.517145047,289.0
37.530275330,270.0
37.543405613,313.0
37.556535895,290.0
37.569666178,363.0
37.582796461,370.0
37.595926743,357.0
37.609057026,389.0
37.622187309,430.0
37.635317591,421.0
37.648447874,442.0
37.661578157,480.0
37.674708439,470.0
37.687838722,532.0
37.700969005,588.0
37.714099287,654.0
37.727229570,673.0
37.740359853,720.0
37.753490135,816.0
37.766620418,865.0
37.779750701,932.0
37.792880983,919.0
37.806011266,961.0
37.819141549,901.0
37.832271831,894.0
37.845402114,937.0
37.858532397,838.0
37.871662680,825.0
37.884792962,811.0
37.897923245,743.0
37.911053528,718.0
37.924183810,652.0
37.937314093,628.0
37.950444376,571.0
37.963574658,546.0
37.976704941,527.0
37.989835224,465.0
38.002965506,412.0
38.016095789,425.0
38.029226072,393.0
38.042356354,384.0
38.055486637,353.0
38.068616920,333.0
38.081747202,341.0
38.094877485,328.0
38.108007768,300.0
38.121138050,346.0
38.134268333,299.0
38.147398616,290.0
38.160528898,288.0
38.173659181,304.0
38.186789464,287.0
38.199919746,244.0
38.213050029,266.0
38.226180312,284.0
38.239310594,270.0
38.252440877,293.0
38.265571160,281.0
38.278701442,282.0
38.291831725,227.0
38.304962008,249.0
38.318092291,242.0
38.331222573,244.0
38.344352856,261.0
38.357483139,286.0
38.370613421,249.0
38.383743704,236.0
38.396873987,256.0
38.410004269,264.0
38.423134552,255.0
38.436264835,282.0
38.449395117,273.0
38.462525400,259.0
38.475655683,255.0
38.488785965,270.0
38.501916248,278.0
38.515046531,227.0
38.528176813,240.0
38.541307096,272.0
38.554437379,258.0
38.567567661,233.0
38.580697944,248.0
38.593828227,268.0
38.606958509,247.0
38.620088792,238.0
38.633219075,261.0
38.646349357,274.0
38.659479640,286.0
38.672609923,288.0
38.685740205,257.0
38.698870488,233.0
38.712000771,233.0
38.725131053,259.0
38.738261336,263.0
38.751391619,241.0
38.764521902,286.0
38.777652184,246.0
38.790782467,234.0
38.803912750,259.0
38.817043032,245.0
38.830173315,255.0
38.843303598,234.0
38.856433880,257.0
38.869564163,264.0
38.882694446,314.0
38.895824728,275.0
38.908955011,268.0
38.922085294,256.0
38.935215576,255.0
38.948345859,235.0
38.961476142,221.0
38.974606424,237.0
38.987736707,241.0
39.000866990,227.0
39.013997272,233.0
39.027127555,241.0
39.040257838,257.0
39.053388120,232.0
39.066518403,238.0
39.079648686,237.0
39.092778968,240.0
39.105909251,238.0
39.119039534,223.0
39.132169816,240.0
39.145300099,224.0
39.158430382,256.0
39.171560664,259.0
39.184690947,237.0
39.197821230,234.0
39.210951513,258.0
39.224081795,246.0
39.237212078,230.0
39.250342361,240.0
39.263472643,225.0
39.276602926,243.0
39.289733209,249.0
39.302863491,233.0
39.315993774,228.0
39.329124057,239.0
39.342254339,213.0
39.355384622,213.0
39.368514905,274.0
39.381645187,229.0
39.394775470,220.0
39.407905753,224.0
39.421036035,229.0
39.434166318,238.0
39.447296601,237.0
39.460426883,245.0
39.473557166,275.0
39.486687449,221.0
39.499817731,214.0
39.512948014,260.0
39.526078297,240.0
39.539208579,241.0
39.552338862,245.0
39.565469145,231.0
39.578599427,265.0
39.591729710,227.0
39.604859993,243.0
39.617990275,259.0
39.631120558,240.0
39.644250841,224.0
39.657381124,240.0
39.670511406,227.0
39.683641689,222.0
39.696771972,256.0
39.709902254,238.0
39.723032537,233.0
39.736162820,262.0
39.749293102,231.0
39.762423385,210.0
39.775553668,228.0
39.788683950,234.0
39.801814233,221.0
39.814944516,232.0
39.828074798,246.0
39.841205081,227.0
39.854335364,240.0
39.867465646,222.0
39.880595929,220.0
39.893726212,203.0
39.906856494,265.0
39.919986777,235.0
39.933117060,240.0
39.946247342,259.0
39.959377625,215.0
39.972507908,200.0
39.985638190,264.0
39.998768473,226.0
40.011898756,221.0
40.025029038,265.0
40.038159321,260.0
40.051289604,268.0
40.064419886,233.0
40.077550169,232.0
40.090680452,231.0
40.103810735,273.0
40.116941017,243.0
40.130071300,272.0
40.143201583,281.0
40.156331865,259.0
40.169462148,301.0
40.182592431,300.0
40.195722713,296.0
40.208852996,299.0
40.221983279,353.0
40.235113561,356.0
40.248243844,399.0
40.261374127,447.0
40.274504409,480.0
40.287634692,529.0
40.300764975,573.0
40.313895257,575.0
40.327025540,609.0
40.340155823,599.0
40.353286105,610.0
40.366416388,581.0
40.379546671,591.0
40.392676953,590.0
40.405807236,587.0
40.418937519,536.0
40.432067801,490.0
40.445198084,491.0
40.458328367,497.0
40.471458649,496.0
40.484588932,402.0
40.497719215,372.0
40.510849498,333.0
40.523979780,341.0
40.537110063,333.0
40.550240346,288.0
40.563370628,304.0
40.576500911,295.0
40.589631194,299.0
40.602761476,239.0
40.615891759,265.0
40.629022042,264.0
40.642152324,264.0
40.655282607,265.0
40.668412890,280.0
40.681543172,275.0
40.694673455,240.0
40.707803738,217.0
40.720934020,228.0
40.734064303,215.0
40.747194586,268.0
40.760324868,227.0
40.773455151,237.0
40.786585434,222.0
40.799715716,261.0
40.812845999,219.0
40.825976282,225.0
40.839106564,248.0
40.852236847,227.0
40.865367130,217.0
40.878497412,223.0
40.891627695,232.0
40.904757978,267.0
40.917888260,221.0
40.931018543,226.0
40.944148826,261.0
40.957279109,255.0
40.970409391,243.0
40.983539674,266.0
40.996669957,220.0
41.009800239,259.0
41.022930522,246.0
41.036060805,248.0
41.049191087,228.0
41.062321370,269.0
41.075451653,241.0
41.088581935,209.0
41.101712218,219.0
41.114842501,213.0
41.127972783,221.0
41.141103066,247.0
41.154233349,224.0
41.167363631,221.0
41.180493914,238.0
41.193624197,241.0
41.206754479,216.0
41.219884762,221.0
41.233015045,228.0
41.246145327,241.0
41.259275610,260.0
41.272405893,246.0
41.285536175,234.0
41.298666458,258.0
41.311796741,237.0
41.324927023,231.0
41.338057306,241.0
41.351187589,193.0
41.364317871,226.0
41.377448154,200.0
41.390578437,238.0
41.403708720,218.0
41.416839002,211.0
41.429969285,219.0
41.443099568,232.0
41.456229850,236.0
41.469360133,221.0
41.482490416,265.0
41.495620698,234.0
41.508750981,220.0
41.521881264,246.0
41.535011546,234.0
41.548141829,238.0
41.561272112,229.0
41.574402394,237.0
41.587532677,246.0
41.600662960,224.0
41.613793242,257.0
41.626923525,237.0
41.640053808,229.0
41.653184090,239.0
41.666314373,235.0
41.679444656,201.0
41.692574938,204.0
41.705705221,243.0
41.718835504,195.0
41.731965786,225.0
41.745096069,215.0
41.758226352,265.0
41.771356634,247.0
41.784486917,223.0
41.797617200,265.0
41.810747482,236.0
41.823877765,205.0
41.837008048,216.0
41.850138331,234.0
41.863268613,223.0
41.876398896,233.0
41.889529179,243.0
41.902659461,204.0
41.915789744,228.0
41.928920027,221.0
41.942050309,207.0
41.955180592,222.0
41.968310875,227.0
41.981441157,225.0
41.994571440,242.0
42.007701723,208.0
42.020832005,265.0
42.033962288,257.0
42.047092571,238.0
42.060222853,244.0
42.073353136,226.0
42.086483419,228.0
42.099613701,243.0
42.112743984,233.0
42.125874267,215.0
42.139004549,240.0
42.152134832,228.0
42.165265115,220.0
42.178395397,242.0
42.191525680,242.0
42.204655963,240.0
42.217786245,233.0
42.230916528,208.0
42.244046811,206.0
42.257177093,235.0
42.270307376,258.0
42.283437659,222.0
42.296567942,235.0
42.309698224,210.0
42.322828507,231.0
42.335958790,244.0
42.349089072,231.0
42.362219355,232.0
42.375349638,232.0
42.388479920,241.0
42.401610203,228.0
42.414740486,256.0
42.427870768,258.0
42.441001051,218.0
42.454131334,259.0
42.467261616,256.0
42.480391899,248.0
42.493522182,258.0
42.506652464,245.0
42.519782747,242.0
42.532913030,247.0
42.546043312,264.0
42.559173595,221.0
42.572303878,217.0
42.585434160,266.0
42.598564443,233.0
42.611694726,265.0
42.624825008,268.0
42.637955291,287.0
42.651085574,257.0
42.664215856,280.0
42.677346139,280.0
42.690476422,292.0
42.703606704,287.0
42.716736987,276.0
42.729867270,290.0
42.742997553,349.0
42.756127835,351.0
42.769258118,395.0
42.782388401,412.0
42.795518683,506.0
42.808648966,590.0
42.821779249,594.0
42.834909531,716.0
42.848039814,788.0
42.861170097,848.0
42.874300379,836.0
42.887430662,856.0
42.900560945,816.0
42.913691227,817.0
42.926821510,826.0
42.939951793,835.0
42.953082075,794.0
42.966212358,790.0
42.979342641,739.0
42.992472923,735.0
43.005603206,719.0
43.018733489,624.0
43.031863771,600.0
43.044994054,559.0
43.058124337,550.0
43.071254619,522.0
43.084384902,512.0
43.097515185,448.0
43.110645467,414.0
43.123775750,362.0
43.136906033,331.0
43.150036315,337.0
43.163166598,277.0
43.176296881,288.0
43.189427164,288.0
43.202557446,294.0
43.215687729,262.0
43.228818012,265.0
43.241948294,248.0
43.255078577,259.0
43.268208860,237.0
43.281339142,264.0
43.294469425,241.0
43.307599708,215.0
43.320729990,263.0
43.333860273,219.0
43.346990556,241.0
43.360120838,230.0
43.373251121,211.0
43.386381404,243.0
43.399511686,256.0
43.412641969,239.0
43.425772252,237.0
43.438902534,255.0
43.452032817,231.0
43.465163100,240.0
43.478293382,206.0
43.491423665,246.0
43.504553948,240.0
43.517684230,205.0
43.530814513,221.0
43.543944796,242.0
43.557075078,225.0
43.570205361,231.0
43.583335644,240.0
43.596465927,225.0
43.609596209,216.0
43.622726492,231.0
43.635856775,205.0
43.648987057,211.0
43.662117340,224.0
43.675247623,248.0
43.688377905,214.0
43.701508188,211.0
43.714638471,187.0
43.727768753,219.0
43.740899036,232.0
43.754029319,239.0
43.767159601,205.0
43.780289884,231.0
43.793420167,237.0
43.806550449,265.0
43.819680732,231.0
43.832811015,201.0
43.845941297,190.0
43.859071580,212.0
43.872201863,243.0
43.885332145,204.0
43.898462428,187.0
43.911592711,200.0
43.924722993,259.0
43.937853276,239.0
43.950983559,241.0
43.964113841,235.0
43.977244124,202.0
43.990374407,216.0
44.003504689,207.0
44.016634972,199.0
44.029765255,206.0
44.042895538,202.0
44.056025820,189.0
44.069156103,195.0
44.082286386,225.0
44.095416668,225.0
44.108546951,218.0
44.121677234,229.0
44.134807516,218.0
44.147937799,220.0
44.161068082,222.0
44.174198364,186.0
44.187328647,220.0
44.200458930,206.0
44.213589212,182.0
44.226719495,228.0
44.239849778,204.0
44.252980060,210.0
44.266110343,217.0
44.279240626,219.0
44.292370908,186.0
44.305501191,226.0
44.318631474,204.0
44.331761756,213.0
44.344892039,205.0
44.358022322,227.0
44.371152604,234.0
44.384282887,233.0
44.397413170,219.0
44.410543452,226.0
44.423673735,230.0
44.436804018,234.0
44.449934300,205.0
44.463064583,205.0
44.476194866,217.0
44.489325149,227.0
44.502455431,219.0
44.515585714,202.0
44.528715997,208.0
44.541846279,209.0
44.554976562,219.0
44.568106845,222.0
44.581237127,195.0
44.594367410,222.0
44.607497693,215.0
44.620627975,214.0
44.633758258,186.0
44.646888541,231.0
44.660018823,209.0
44.673149106,227.0
44.686279389,220.0
44.699409671,184.0
44.712539954,205.0
44.725670237,201.0
44.738800519,206.0
44.751930802,210.0
44.765061085,217.0
44.778191367,219.0
44.791321650,206.0
44.804451933,206.0
44.817582215,210.0
44.830712498,224.0
44.843842781,243.0
44.856973063,183.0
44.870103346,234.0
44.883233629,234.0
44.896363911,218.0
44.909494194,243.0
44.922624477,192.0
44.935754760,203.0
44.948885042,198.0
44.962015325,225.0
44.975145608,197.0
44.988275890,230.0
45.001406173,195.0
45.014536456,219.0
45.027666738,214.0
45.040797021,213.0
45.053927304,196.0
45.067057586,217.0
45.080187869,233.0
45.093318152,209.0
45.106448434,207.0
45.119578717,188.0
45.132709000,207.0
45.145839282,190.0
45.158969565,210.0
45.172099848,184.0
45.185230130,210.0
45.198360413,207.0
45.211490696,220.0
45.224620978,204.0
45.237751261,191.0
45.250881544,239.0
45.264011826,197.0
45.277142109,207.0
45.290272392,223.0
45.303402674,222.0
45.316532957,224.0
45.329663240,229.0
45.342793522,215.0
45.355923805,203.0
45.369054088,233.0
45.382184371,236.0
45.395314653,206.0
45.408444936,205.0
45.421575219,225.0
45.434705501,203.0
45.447835784,227.0
45.460966067,235.0
45.474096349,215.0
45.487226632,227.0
45.500356915,214.0
45.513487197,215.0
45.526617480,181.0
45.539747763,209.0
45.552878045,209.0
45.566008328,225.0
45.579138611,209.0
45.592268893,177.0
45.605399176,203.0
45.618529459,185.0
45.631659741,231.0
45.644790024,224.0
45.657920307,200.0
45.671050589,200.0
45.684180872,208.0
45.697311155,212.0
45.710441437,216.0
45.723571720,209.0
45.736702003,205.0
45.749832285,174.0
45.762962568,193.0
45.776092851,167.0
45.789223133,183.0
45.802353416,226.0
45.815483699,204.0
45.828613982,186.0
45.841744264,197.0
45.854874547,230.0
45.868004830,188.0
45.881135112,169.0
45.894265395,186.0
45.907395678,185.0
45.920525960,222.0
45.933656243,182.0
45.946786526,215.0
45.959916808,224.0
45.973047091,213.0
45.986177374,210.0
45.999307656,187.0
46.012437939,204.0
46.025568222,206.0
46.038698504,189.0
46.051828787,215.0
46.064959070,231.0
46.078089352,214.0
46.091219635,243.0
46.104349918,209.0
46.117480200,176.0
46.130610483,201.0
46.143740766,194.0
46.156871048,216.0
46.170001331,211.0
46.183131614,201.0
46.196261896,173.0
46.209392179,184.0
46.222522462,207.0
46.235652744,217.0
46.248783027,194.0
46.261913310,190.0
46.275043593,197.0
46.288173875,195.0
46.301304158,196.0
46.314434441,213.0
46.327564723,191.0
46.340695006,182.0
46.353825289,234.0
46.366955571,222.0
46.380085854,201.0
46.393216137,182.0
46.406346419,209.0
46.419476702,197.0
46.432606985,205.0
46.445737267,161.0
46.458867550,199.0
46.471997833,214.0
46.485128115,203.0
46.498258398,190.0
46.511388681,220.0
46.524518963,194.0
46.537649246,189.0
46.550779529,225.0
46.563909811,199.0
46.577040094,221.0
46.590170377,202.0
46.603300659,213.0
46.616430942,190.0
46.629561225,223.0
46.642691507,199.0
46.655821790,204.0
46.668952073,173.0
46.682082355,195.0
46.695212638,178.0
46.708342921,202.0
46.721473204,185.0
46.734603486,201.0
46.747733769,207.0
46.760864052,201.0
46.773994334,202.0
46.787124617,193.0
46.800254900,230.0
46.813385182,177.0
46.826515465,208.0
46.839645748,173.0
46.852776030,190.0
46.865906313,216.0
46.879036596,226.0
46.892166878,197.0
46.905297161,185.0
46.918427444,191.0
46.931557726,171.0
46.944688009,225.0
46.957818292,208.0
46.970948574,208.0
46.984078857,209.0
46.997209140,221.0
47.010339422,205.0
47.023469705,212.0
47.036599988,190.0
47.049730270,189.0
47.062860553,207.0
47.075990836,186.0
47.089121118,180.0
47.102251401,179.0
47.115381684,208.0
47.128511967,178.0
47.141642249,209.0
47.154772532,184.0
47.167902815,183.0
47.181033097,198.0
47.194163380,188.0
47.207293663,216.0
47.220423945,203.0
47.233554228,220.0
47.246684511,193.0
47.259814793,177.0
47.272945076,181.0
47.286075359,186.0
47.299205641,230.0
47.312335924,192.0
47.325466207,208.0
47.338596489,173.0
47.351726772,180.0
47.364857055,192.0
47.377987337,202.0
47.391117620,174.0
47.404247903,212.0
47.417378185,196.0
47.430508468,188.0
47.443638751,191.0
47.456769033,207.0
47.469899316,198.0
47.483029599,209.0
47.496159881,215.0
47.509290164,223.0
47.522420447,202.0
47.535550729,213.0
47.548681012,205.0
47.561811295,210.0
47.574941578,206.0
47.588071860,190.0
47.601202143,228.0
47.614332426,249.0
47.627462708,224.0
47.640592991,205.0
47.653723274,228.0
47.666853556,215.0
47.679983839,204.0
47.693114122,220.0
47.706244404,226.0
47.719374687,227.0
47.732504970,230.0
47.745635252,261.0
47.758765535,220.0
47.771895818,233.0
47.785026100,244.0
47.798156383,229.0
47.811286666,203.0
47.824416948,199.0
47.837547231,198.0
47.850677514,195.0
47.863807796,212.0
47.876938079,209.0
47.890068362,212.0
47.903198644,196.0
47.916328927,197.0
47.929459210,174.0
47.942589492,211.0
47.955719775,186.0
47.968850058,187.0
47.981980340,192.0
47.995110623,185.0
48.008240906,215.0
48.021371189,226.0
48.034501471,191.0
48.047631754,194.0
48.060762037,202.0
48.073892319,170.0
48.087022602,173.0
48.100152885,186.0
48.113283167,190.0
48.126413450,203.0
48.139543733,167.0
48.152674015,192.0
48.165804298,196.0
48.178934581,200.0
48.192064863,175.0
48.205195146,194.0
48.218325429,199.0
48.231455711,200.0
48.244585994,201.0
48.257716277,203.0
48.270846559,189.0
48.283976842,186.0
48.297107125,190.0
48.310237407,197.0
48.323367690,200.0
48.336497973,212.0
48.349628255,192.0
48.362758538,190.0
48.375888821,212.0
48.389019103,170.0
48.402149386,208.0
48.415279669,180.0
48.428409951,181.0
48.441540234,217.0
48.454670517,219.0
48.467800800,191.0
48.480931082,186.0
48.494061365,204.0
48.507191648,199.0
48.520321930,201.0
48.533452213,183.0
48.546582496,179.0
48.559712778,199.0
48.572843061,186.0
48.585973344,198.0
48.599103626,211.0
48.612233909,210.0
48.625364192,190.0
48.638494474,185.0
48.651624757,186.0
48.664755040,204.0
48.677885322,195.0
48.691015605,164.0
48.704145888,179.0
48.717276170,188.0
48.730406453,187.0
48.743536736,185.0
48.756667018,194.0
48.769797301,194.0
48.782927584,176.0
48.796057866,175.0
48.809188149,201.0
48.822318432,177.0
48.835448714,188.0
48.848578997,178.0
48.861709280,183.0
48.874839562,191.0
48.887969845,188.0
48.901100128,196.0
48.914230411,207.0
48.927360693,209.0
48.940490976,193.0
48.953621259,183.0
48.966751541,202.0
48.979881824,200.0
48.993012107,185.0
49.006142389,174.0
49.019272672,183.0
49.032402955,200.0
49.045533237,195.0
49.058663520,200.0
49.071793803,177.0
49.084924085,187.0
49.098054368,176.0
49.111184651,197.0
49.124314933,206.0
49.137445216,194.0
49.150575499,181.0
49.163705781,198.0
49.176836064,183.0
49.189966347,203.0
49.203096629,207.0
49.216226912,211.0
49.229357195,190.0
49.242487477,205.0
49.255617760,212.0
49.268748043,226.0
49.281878325,174.0
49.295008608,200.0
49.308138891,195.0
49.321269173,204.0
49.334399456,190.0
49.347529739,209.0
49.360660022,192.0
49.373790304,179.0
49.386920587,200.0
49.400050870,223.0
49.413181152,203.0
49.426311435,186.0
49.439441718,164.0
49.452572000,209.0
49.465702283,199.0
49.478832566,199.0
49.491962848,219.0
49.505093131,180.0
49.518223414,218.0
49.531353696,222.0
49.544483979,214.0
49.557614262,192.0
49.570744544,214.0
49.583874827,228.0
49.597005110,203.0
49.610135392,210.0
49.623265675,214.0
49.636395958,249.0
49.649526240,218.0
49.662656523,218.0
49.675786806,199.0
49.688917088,223.0
49.702047371,235.0
49.715177654,220.0
49.728307936,262.0
49.741438219,257.0
49.754568502,249.0
49.767698784,240.0
49.780829067,286.0
49.793959350,306.0
49.807089633,308.0
49.820219915,358.0
49.833350198,385.0
49.846480481,424.0
49.859610763,425.0
49.872741046,484.0
49.885871329,502.0
49.899001611,568.0
49.912131894,616.0
49.925262177,538.0
49.938392459,596.0
49.951522742,609.0
49.964653025,668.0
49.977783307,680.0
49.990913590,674.0
