[Measurement conditions]
Sample identification,
Comment - 1,"5-50 for 5min"
Comment - 2,"Configuration=Chi-Phi-x-y-z stage 240 mm, Owner=User-1, Creation date=2012/9/10 12:01:05"
Comment - 3,"Goniometer=Theta/Theta; Minimum step size 2Theta:.0001; Minimum step size Omega:.0001"
Comment - 4,"Sample stage=Chi-Phi-x-y-z stage 240 mm; Minimum step size Phi:.01; Minimum step size Chi:.01; Minimum step size X:.01; Minimum step size Y:.01; Minimum step size Z:.001"
Comment - 5,"Diffractometer system=EMPYREAN"
Comment - 6,"Measurement program=C:\PANalytical\Data Collector\Programs\Phase-4-WU.xrdmp, Identifier={F5A8FFB3-DF66-4098-8257-F6B239A143CA}"
Anode material,Cu
K-Alpha1 wavelength,1.5405980
K-Alpha2 wavelength,1.5444260
Ratio K-Alpha2/K-Alpha1,0.500
Divergence slit,Fixed,0.76mm
Monochromator used,NO
Generator voltage, 40
Tube current, 40
File date and time,16/Ê®Ò»ÔÂ/2021 19:03
Unit cell,
h k l, 0 0 0
Scan axis,2Theta-Omega
Scan range,4.999999999,49.997478731
Scan step size,0.0131303
Omega offset,0.00000000
No. of points, 3427
Scan type,CONTINUOUS
Phi,0.0
Psi,0.0
X,0.0
Y,0.0
Z,9.34
Time per step,18.87
[Scan points]
Angle,Intensity
5.006565140,776.0
5.019695423,815.0
5.032825705,820.0
5.045955988,752.0
5.059086271,732.0
5.072216553,751.0
5.085346836,775.0
5.098477119,760.0
5.111607401,804.0
5.124737684,749.0
5.137867967,751.0
5.150998249,746.0
5.164128532,735.0
5.177258815,775.0
5.190389097,741.0
5.203519380,726.0
5.216649663,783.0
5.229779946,751.0
5.242910228,725.0
5.256040511,777.0
5.269170794,764.0
5.282301076,733.0
5.295431359,738.0
5.308561642,733.0
5.321691924,756.0
5.334822207,750.0
5.347952490,683.0
5.361082772,784.0
5.374213055,715.0
5.387343338,752.0
5.400473620,756.0
5.413603903,797.0
5.426734186,730.0
5.439864468,721.0
5.452994751,708.0
5.466125034,739.0
5.479255316,750.0
5.492385599,705.0
5.505515882,780.0
5.518646164,675.0
5.531776447,725.0
5.544906730,738.0
5.558037012,738.0
5.571167295,709.0
5.584297578,795.0
5.597427860,722.0
5.610558143,730.0
5.623688426,745.0
5.636818708,741.0
5.649948991,725.0
5.663079274,752.0
5.676209557,778.0
5.689339839,771.0
5.702470122,758.0
5.715600405,694.0
5.728730687,723.0
5.741860970,710.0
5.754991253,734.0
5.768121535,711.0
5.781251818,713.0
5.794382101,734.0
5.807512383,733.0
5.820642666,759.0
5.833772949,750.0
5.846903231,739.0
5.860033514,766.0
5.873163797,764.0
5.886294079,785.0
5.899424362,761.0
5.912554645,713.0
5.925684927,748.0
5.938815210,743.0
5.951945493,683.0
5.965075775,712.0
5.978206058,781.0
5.991336341,716.0
6.004466623,753.0
6.017596906,718.0
6.030727189,735.0
6.043857471,707.0
6.056987754,711.0
6.070118037,736.0
6.083248319,748.0
6.096378602,746.0
6.109508885,731.0
6.122639168,750.0
6.135769450,699.0
6.148899733,707.0
6.162030016,686.0
6.175160298,723.0
6.188290581,760.0
6.201420864,715.0
6.214551146,779.0
6.227681429,715.0
6.240811712,739.0
6.253941994,668.0
6.267072277,717.0
6.280202560,666.0
6.293332842,712.0
6.306463125,700.0
6.319593408,704.0
6.332723690,709.0
6.345853973,691.0
6.358984256,732.0
6.372114538,728.0
6.385244821,729.0
6.398375104,743.0
6.411505386,696.0
6.424635669,746.0
6.437765952,746.0
6.450896234,810.0
6.464026517,763.0
6.477156800,705.0
6.490287082,741.0
6.503417365,719.0
6.516547648,684.0
6.529677930,691.0
6.542808213,763.0
6.555938496,671.0
6.569068779,717.0
6.582199061,680.0
6.595329344,737.0
6.608459627,673.0
6.621589909,745.0
6.634720192,745.0
6.647850475,751.0
6.660980757,657.0
6.674111040,718.0
6.687241323,731.0
6.700371605,686.0
6.713501888,726.0
6.726632171,714.0
6.739762453,686.0
6.752892736,717.0
6.766023019,741.0
6.779153301,669.0
6.792283584,712.0
6.805413867,732.0
6.818544149,673.0
6.831674432,710.0
6.844804715,662.0
6.857934997,726.0
6.871065280,752.0
6.884195563,678.0
6.897325845,739.0
6.910456128,717.0
6.923586411,746.0
6.936716693,721.0
6.949846976,736.0
6.962977259,667.0
6.976107541,775.0
6.989237824,684.0
7.002368107,730.0
7.015498390,720.0
7.028628672,673.0
7.041758955,722.0
7.054889238,712.0
7.068019520,718.0
7.081149803,699.0
7.094280086,695.0
7.107410368,679.0
7.120540651,745.0
7.133670934,752.0
7.146801216,728.0
7.159931499,733.0
7.173061782,767.0
7.186192064,696.0
7.199322347,717.0
7.212452630,728.0
7.225582912,720.0
7.238713195,702.0
7.251843478,762.0
7.264973760,770.0
7.278104043,655.0
7.291234326,681.0
7.304364608,713.0
7.317494891,709.0
7.330625174,690.0
7.343755456,697.0
7.356885739,674.0
7.370016022,677.0
7.383146304,691.0
7.396276587,688.0
7.409406870,735.0
7.422537152,736.0
7.435667435,739.0
7.448797718,710.0
7.461928001,743.0
7.475058283,706.0
7.488188566,678.0
7.501318849,708.0
7.514449131,750.0
7.527579414,701.0
7.540709697,724.0
7.553839979,717.0
7.566970262,692.0
7.580100545,643.0
7.593230827,707.0
7.606361110,675.0
7.619491393,681.0
7.632621675,671.0
7.645751958,672.0
7.658882241,716.0
7.672012523,680.0
7.685142806,673.0
7.698273089,682.0
7.711403371,698.0
7.724533654,678.0
7.737663937,650.0
7.750794219,724.0
7.763924502,728.0
7.777054785,736.0
7.790185067,636.0
7.803315350,625.0
7.816445633,709.0
7.829575915,702.0
7.842706198,697.0
7.855836481,700.0
7.868966763,685.0
7.882097046,700.0
7.895227329,730.0
7.908357612,666.0
7.921487894,671.0
7.934618177,698.0
7.947748460,659.0
7.960878742,706.0
7.974009025,639.0
7.987139308,691.0
8.000269590,707.0
8.013399873,689.0
8.026530156,655.0
8.039660438,666.0
8.052790721,671.0
8.065921004,667.0
8.079051286,689.0
8.092181569,679.0
8.105311852,668.0
8.118442134,711.0
8.131572417,727.0
8.144702700,701.0
8.157832982,697.0
8.170963265,653.0
8.184093548,723.0
8.197223830,709.0
8.210354113,714.0
8.223484396,654.0
8.236614678,694.0
8.249744961,678.0
8.262875244,685.0
8.276005526,685.0
8.289135809,649.0
8.302266092,686.0
8.315396375,640.0
8.328526657,666.0
8.341656940,695.0
8.354787223,672.0
8.367917505,730.0
8.381047788,707.0
8.394178071,704.0
8.407308353,650.0
8.420438636,678.0
8.433568919,660.0
8.446699201,646.0
8.459829484,668.0
8.472959767,695.0
8.486090049,634.0
8.499220332,678.0
8.512350615,669.0
8.525480897,681.0
8.538611180,677.0
8.551741463,610.0
8.564871745,705.0
8.578002028,643.0
8.591132311,696.0
8.604262593,692.0
8.617392876,664.0
8.630523159,650.0
8.643653441,690.0
8.656783724,712.0
8.669914007,614.0
8.683044289,641.0
8.696174572,662.0
8.709304855,652.0
8.722435137,695.0
8.735565420,695.0
8.748695703,700.0
8.761825986,650.0
8.774956268,672.0
8.788086551,634.0
8.801216834,664.0
8.814347116,682.0
8.827477399,703.0
8.840607682,688.0
8.853737964,687.0
8.866868247,646.0
8.879998530,665.0
8.893128812,700.0
8.906259095,675.0
8.919389378,584.0
8.932519660,691.0
8.945649943,634.0
8.958780226,599.0
8.971910508,686.0
8.985040791,680.0
8.998171074,599.0
9.011301356,675.0
9.024431639,673.0
9.037561922,653.0
9.050692204,683.0
9.063822487,651.0
9.076952770,599.0
9.090083052,677.0
9.103213335,697.0
9.116343618,650.0
9.129473900,707.0
9.142604183,689.0
9.155734466,643.0
9.168864748,575.0
9.181995031,672.0
9.195125314,665.0
9.208255597,581.0
9.221385879,650.0
9.234516162,638.0
9.247646445,652.0
9.260776727,625.0
9.273907010,636.0
9.287037293,643.0
9.300167575,616.0
9.313297858,612.0
9.326428141,620.0
9.339558423,668.0
9.352688706,596.0
9.365818989,640.0
9.378949271,707.0
9.392079554,637.0
9.405209837,660.0
9.418340119,595.0
9.431470402,700.0
9.444600685,674.0
9.457730967,651.0
9.470861250,637.0
9.483991533,674.0
9.497121815,592.0
9.510252098,671.0
9.523382381,689.0
9.536512663,640.0
9.549642946,651.0
9.562773229,609.0
9.575903511,624.0
9.589033794,629.0
9.602164077,648.0
9.615294359,631.0
9.628424642,639.0
9.641554925,710.0
9.654685208,654.0
9.667815490,646.0
9.680945773,650.0
9.694076056,623.0
9.707206338,610.0
9.720336621,658.0
9.733466904,673.0
9.746597186,611.0
9.759727469,678.0
9.772857752,619.0
9.785988034,620.0
9.799118317,637.0
9.812248600,707.0
9.825378882,667.0
9.838509165,610.0
9.851639448,597.0
9.864769730,634.0
9.877900013,584.0
9.891030296,583.0
9.904160578,616.0
9.917290861,658.0
9.930421144,660.0
9.943551426,632.0
9.956681709,687.0
9.969811992,657.0
9.982942274,642.0
9.996072557,629.0
10.009202840,640.0
10.022333122,639.0
10.035463405,633.0
10.048593688,621.0
10.061723970,646.0
10.074854253,663.0
10.087984536,613.0
10.101114819,627.0
10.114245101,630.0
10.127375384,646.0
10.140505667,623.0
10.153635949,624.0
10.166766232,646.0
10.179896515,639.0
10.193026797,597.0
10.206157080,584.0
10.219287363,629.0
10.232417645,634.0
10.245547928,613.0
10.258678211,654.0
10.271808493,599.0
10.284938776,599.0
10.298069059,594.0
10.311199341,608.0
10.324329624,587.0
10.337459907,620.0
10.350590189,637.0
10.363720472,654.0
10.376850755,634.0
10.389981037,604.0
10.403111320,645.0
10.416241603,608.0
10.429371885,624.0
10.442502168,565.0
10.455632451,577.0
10.468762733,589.0
10.481893016,607.0
10.495023299,553.0
10.508153581,584.0
10.521283864,598.0
10.534414147,610.0
10.547544430,594.0
10.560674712,611.0
10.573804995,554.0
10.586935278,603.0
10.600065560,629.0
10.613195843,611.0
10.626326126,569.0
10.639456408,606.0
10.652586691,583.0
10.665716974,624.0
10.678847256,651.0
10.691977539,591.0
10.705107822,558.0
10.718238104,617.0
10.731368387,601.0
10.744498670,623.0
10.757628952,669.0
10.770759235,647.0
10.783889518,626.0
10.797019800,567.0
10.810150083,571.0
10.823280366,591.0
10.836410648,610.0
10.849540931,578.0
10.862671214,582.0
10.875801496,603.0
10.888931779,596.0
10.902062062,587.0
10.915192344,570.0
10.928322627,632.0
10.941452910,591.0
10.954583192,641.0
10.967713475,625.0
10.980843758,579.0
10.993974041,570.0
11.007104323,585.0
11.020234606,577.0
11.033364889,583.0
11.046495171,621.0
11.059625454,632.0
11.072755737,615.0
11.085886019,574.0
11.099016302,559.0
11.112146585,613.0
11.125276867,600.0
11.138407150,607.0
11.151537433,571.0
11.164667715,545.0
11.177797998,618.0
11.190928281,554.0
11.204058563,630.0
11.217188846,572.0
11.230319129,615.0
11.243449411,545.0
11.256579694,616.0
11.269709977,595.0
11.282840259,574.0
11.295970542,627.0
11.309100825,599.0
11.322231107,575.0
11.335361390,565.0
11.348491673,557.0
11.361621955,558.0
11.374752238,626.0
11.387882521,662.0
11.401012803,642.0
11.414143086,595.0
11.427273369,645.0
11.440403652,666.0
11.453533934,621.0
11.466664217,635.0
11.479794500,633.0
11.492924782,636.0
11.506055065,631.0
11.519185348,599.0
11.532315630,611.0
11.545445913,606.0
11.558576196,590.0
11.571706478,642.0
11.584836761,591.0
11.597967044,604.0
11.611097326,590.0
11.624227609,622.0
11.637357892,644.0
11.650488174,596.0
11.663618457,649.0
11.676748740,628.0
11.689879022,564.0
11.703009305,643.0
11.716139588,639.0
11.729269870,617.0
11.742400153,609.0
11.755530436,602.0
11.768660718,584.0
11.781791001,581.0
11.794921284,587.0
11.808051566,566.0
11.821181849,588.0
11.834312132,572.0
11.847442415,614.0
11.860572697,647.0
11.873702980,595.0
11.886833263,615.0
11.899963545,639.0
11.913093828,635.0
11.926224111,641.0
11.939354393,592.0
11.952484676,582.0
11.965614959,618.0
11.978745241,613.0
11.991875524,585.0
12.005005807,592.0
12.018136089,621.0
12.031266372,596.0
12.044396655,633.0
12.057526937,630.0
12.070657220,612.0
12.083787503,575.0
12.096917785,609.0
12.110048068,585.0
12.123178351,618.0
12.136308633,597.0
12.149438916,593.0
12.162569199,550.0
12.175699481,617.0
12.188829764,629.0
12.201960047,611.0
12.215090329,597.0
12.228220612,580.0
12.241350895,640.0
12.254481177,573.0
12.267611460,607.0
12.280741743,628.0
12.293872026,644.0
12.307002308,652.0
12.320132591,614.0
12.333262874,586.0
12.346393156,624.0
12.359523439,600.0
12.372653722,568.0
12.385784004,568.0
12.398914287,585.0
12.412044570,591.0
12.425174852,594.0
12.438305135,630.0
12.451435418,578.0
12.464565700,567.0
12.477695983,620.0
12.490826266,580.0
12.503956548,555.0
12.517086831,590.0
12.530217114,577.0
12.543347396,594.0
12.556477679,620.0
12.569607962,648.0
12.582738244,589.0
12.595868527,614.0
12.608998810,635.0
12.622129092,639.0
12.635259375,631.0
12.648389658,600.0
12.661519940,594.0
12.674650223,600.0
12.687780506,545.0
12.700910788,584.0
12.714041071,569.0
12.727171354,586.0
12.740301637,588.0
12.753431919,545.0
12.766562202,597.0
12.779692485,557.0
12.792822767,560.0
12.805953050,577.0
12.819083333,566.0
12.832213615,599.0
12.845343898,605.0
12.858474181,564.0
12.871604463,573.0
12.884734746,561.0
12.897865029,600.0
12.910995311,551.0
12.924125594,545.0
12.937255877,580.0
12.950386159,579.0
12.963516442,557.0
12.976646725,582.0
12.989777007,542.0
13.002907290,614.0
13.016037573,582.0
13.029167855,568.0
13.042298138,614.0
13.055428421,638.0
13.068558703,601.0
13.081688986,620.0
13.094819269,625.0
13.107949551,602.0
13.121079834,590.0
13.134210117,557.0
13.147340399,595.0
13.160470682,591.0
13.173600965,588.0
13.186731248,587.0
13.199861530,600.0
13.212991813,591.0
13.226122096,598.0
13.239252378,582.0
13.252382661,612.0
13.265512944,598.0
13.278643226,622.0
13.291773509,553.0
13.304903792,626.0
13.318034074,548.0
13.331164357,550.0
13.344294640,630.0
13.357424922,597.0
13.370555205,585.0
13.383685488,594.0
13.396815770,638.0
13.409946053,624.0
13.423076336,627.0
13.436206618,629.0
13.449336901,591.0
13.462467184,657.0
13.475597466,607.0
13.488727749,659.0
13.501858032,632.0
13.514988314,722.0
13.528118597,701.0
13.541248880,706.0
13.554379162,728.0
13.567509445,693.0
13.580639728,757.0
13.593770010,778.0
13.606900293,691.0
13.620030576,735.0
13.633160859,819.0
13.646291141,871.0
13.659421424,883.0
13.672551707,937.0
13.685681989,918.0
13.698812272,1013.0
13.711942555,955.0
13.725072837,1006.0
13.738203120,1037.0
13.751333403,1139.0
13.764463685,1219.0
13.777593968,1293.0
13.790724251,1337.0
13.803854533,1374.0
13.816984816,1581.0
13.830115099,1734.0
13.843245381,1838.0
13.856375664,2081.0
13.869505947,2344.0
13.882636229,2502.0
13.895766512,2933.0
13.908896795,3123.0
13.922027077,3751.0
13.935157360,4272.0
13.948287643,5251.0
13.961417925,6304.0
13.974548208,7559.0
13.987678491,8856.0
14.000808773,9858.0
14.013939056,9779.0
14.027069339,8656.0
14.040199621,7000.0
14.053329904,5271.0
14.066460187,3665.0
14.079590470,2351.0
14.092720752,1652.0
14.105851035,1309.0
14.118981318,1186.0
14.132111600,1034.0
14.145241883,929.0
14.158372166,904.0
14.171502448,890.0
14.184632731,895.0
14.197763014,796.0
14.210893296,717.0
14.224023579,727.0
14.237153862,781.0
14.250284144,714.0
14.263414427,663.0
14.276544710,627.0
14.289674992,705.0
14.302805275,709.0
14.315935558,658.0
14.329065840,680.0
14.342196123,655.0
14.355326406,640.0
14.368456688,637.0
14.381586971,609.0
14.394717254,666.0
14.407847536,636.0
14.420977819,619.0
14.434108102,653.0
14.447238384,597.0
14.460368667,611.0
14.473498950,598.0
14.486629232,624.0
14.499759515,571.0
14.512889798,619.0
14.526020081,574.0
14.539150363,623.0
14.552280646,573.0
14.565410929,583.0
14.578541211,567.0
14.591671494,546.0
14.604801777,588.0
14.617932059,583.0
14.631062342,595.0
14.644192625,546.0
14.657322907,576.0
14.670453190,613.0
14.683583473,611.0
14.696713755,562.0
14.709844038,573.0
14.722974321,613.0
14.736104603,621.0
14.749234886,589.0
14.762365169,544.0
14.775495451,594.0
14.788625734,648.0
14.801756017,570.0
14.814886299,533.0
14.828016582,579.0
14.841146865,587.0
14.854277147,546.0
14.867407430,578.0
14.880537713,535.0
14.893667995,587.0
14.906798278,571.0
14.919928561,585.0
14.933058844,512.0
14.946189126,575.0
14.959319409,614.0
14.972449692,610.0
14.985579974,554.0
14.998710257,609.0
15.011840540,548.0
15.024970822,550.0
15.038101105,565.0
15.051231388,548.0
15.064361670,560.0
15.077491953,565.0
15.090622236,638.0
15.103752518,604.0
15.116882801,583.0
15.130013084,570.0
15.143143366,572.0
15.156273649,592.0
15.169403932,576.0
15.182534214,577.0
15.195664497,560.0
15.208794780,552.0
15.221925062,558.0
15.235055345,583.0
15.248185628,660.0
15.261315910,552.0
15.274446193,567.0
15.287576476,544.0
15.300706758,554.0
15.313837041,546.0
15.326967324,580.0
15.340097606,594.0
15.353227889,579.0
15.366358172,583.0
15.379488455,533.0
15.392618737,569.0
15.405749020,581.0
15.418879303,529.0
15.432009585,537.0
15.445139868,545.0
15.458270151,548.0
15.471400433,562.0
15.484530716,540.0
15.497660999,518.0
15.510791281,551.0
15.523921564,535.0
15.537051847,537.0
15.550182129,586.0
15.563312412,563.0
15.576442695,583.0
15.589572977,555.0
15.602703260,562.0
15.615833543,528.0
15.628963825,511.0
15.642094108,533.0
15.655224391,520.0
15.668354673,563.0
15.681484956,574.0
15.694615239,510.0
15.707745521,528.0
15.720875804,504.0
15.734006087,544.0
15.747136369,536.0
15.760266652,563.0
15.773396935,560.0
15.786527217,521.0
15.799657500,511.0
15.812787783,542.0
15.825918066,572.0
15.839048348,533.0
15.852178631,494.0
15.865308914,529.0
15.878439196,554.0
15.891569479,542.0
15.904699762,532.0
15.917830044,483.0
15.930960327,561.0
15.944090610,563.0
15.957220892,571.0
15.970351175,518.0
15.983481458,515.0
15.996611740,507.0
16.009742023,513.0
16.022872306,567.0
16.036002588,533.0
16.049132871,533.0
16.062263154,563.0
16.075393436,525.0
16.088523719,566.0
16.101654002,528.0
16.114784284,527.0
16.127914567,585.0
16.141044850,585.0
16.154175132,567.0
16.167305415,535.0
16.180435698,507.0
16.193565980,555.0
16.206696263,544.0
16.219826546,527.0
16.232956828,522.0
16.246087111,509.0
16.259217394,527.0
16.272347677,534.0
16.285477959,508.0
16.298608242,509.0
16.311738525,530.0
16.324868807,503.0
16.337999090,564.0
16.351129373,542.0
16.364259655,563.0
16.377389938,512.0
16.390520221,524.0
16.403650503,545.0
16.416780786,573.0
16.429911069,516.0
16.443041351,554.0
16.456171634,529.0
16.469301917,520.0
16.482432199,557.0
16.495562482,535.0
16.508692765,542.0
16.521823047,481.0
16.534953330,544.0
16.548083613,536.0
16.561213895,507.0
16.574344178,496.0
16.587474461,534.0
16.600604743,548.0
16.613735026,542.0
16.626865309,538.0
16.639995591,518.0
16.653125874,491.0
16.666256157,502.0
16.679386439,514.0
16.692516722,505.0
16.705647005,512.0
16.718777288,537.0
16.731907570,522.0
16.745037853,517.0
16.758168136,520.0
16.771298418,511.0
16.784428701,525.0
16.797558984,538.0
16.810689266,491.0
16.823819549,576.0
16.836949832,534.0
16.850080114,543.0
16.863210397,494.0
16.876340680,535.0
16.889470962,537.0
16.902601245,509.0
16.915731528,553.0
16.928861810,540.0
16.941992093,505.0
16.955122376,485.0
16.968252658,546.0
16.981382941,539.0
16.994513224,478.0
17.007643506,476.0
17.020773789,500.0
17.033904072,492.0
17.047034354,547.0
17.060164637,521.0
17.073294920,496.0
17.086425202,530.0
17.099555485,532.0
17.112685768,515.0
17.125816050,516.0
17.138946333,487.0
17.152076616,482.0
17.165206899,489.0
17.178337181,493.0
17.191467464,523.0
17.204597747,507.0
17.217728029,515.0
17.230858312,492.0
17.243988595,497.0
17.257118877,520.0
17.270249160,476.0
17.283379443,519.0
17.296509725,541.0
17.309640008,509.0
17.322770291,512.0
17.335900573,549.0
17.349030856,495.0
17.362161139,498.0
17.375291421,491.0
17.388421704,487.0
17.401551987,482.0
17.414682269,523.0
17.427812552,542.0
17.440942835,478.0
17.454073117,514.0
17.467203400,481.0
17.480333683,448.0
17.493463965,515.0
17.506594248,537.0
17.519724531,546.0
17.532854813,472.0
17.545985096,487.0
17.559115379,495.0
17.572245661,493.0
17.585375944,537.0
17.598506227,541.0
17.611636510,465.0
17.624766792,517.0
17.637897075,502.0
17.651027358,506.0
17.664157640,527.0
17.677287923,476.0
17.690418206,467.0
17.703548488,466.0
17.716678771,489.0
17.729809054,520.0
17.742939336,505.0
17.756069619,514.0
17.769199902,489.0
17.782330184,469.0
17.795460467,496.0
17.808590750,506.0
17.821721032,479.0
17.834851315,450.0
17.847981598,492.0
17.861111880,474.0
17.874242163,566.0
17.887372446,496.0
17.900502728,519.0
17.913633011,514.0
17.926763294,520.0
17.939893576,527.0
17.953023859,485.0
17.966154142,500.0
17.979284424,521.0
17.992414707,467.0
18.005544990,476.0
18.018675273,503.0
18.031805555,476.0
18.044935838,438.0
18.058066121,467.0
18.071196403,488.0
18.084326686,507.0
18.097456969,466.0
18.110587251,468.0
18.123717534,479.0
18.136847817,466.0
18.149978099,486.0
18.163108382,467.0
18.176238665,455.0
18.189368947,503.0
18.202499230,471.0
18.215629513,508.0
18.228759795,483.0
18.241890078,491.0
18.255020361,473.0
18.268150643,447.0
18.281280926,482.0
18.294411209,500.0
18.307541491,514.0
18.320671774,451.0
18.333802057,467.0
18.346932339,475.0
18.360062622,481.0
18.373192905,505.0
18.386323187,489.0
18.399453470,461.0
18.412583753,511.0
18.425714035,509.0
18.438844318,442.0
18.451974601,492.0
18.465104884,488.0
18.478235166,450.0
18.491365449,458.0
18.504495732,489.0
18.517626014,484.0
18.530756297,481.0
18.543886580,493.0
18.557016862,459.0
18.570147145,453.0
18.583277428,447.0
18.596407710,513.0
18.609537993,509.0
18.622668276,493.0
18.635798558,479.0
18.648928841,508.0
18.662059124,473.0
18.675189406,523.0
18.688319689,486.0
18.701449972,524.0
18.714580254,480.0
18.727710537,497.0
18.740840820,499.0
18.753971102,482.0
18.767101385,479.0
18.780231668,479.0
18.793361950,477.0
18.806492233,443.0
18.819622516,444.0
18.832752798,495.0
18.845883081,444.0
18.859013364,462.0
18.872143646,488.0
18.885273929,472.0
18.898404212,426.0
18.911534495,475.0
18.924664777,463.0
18.937795060,418.0
18.950925343,477.0
18.964055625,473.0
18.977185908,518.0
18.990316191,489.0
19.003446473,515.0
19.016576756,443.0
19.029707039,480.0
19.042837321,441.0
19.055967604,422.0
19.069097887,535.0
19.082228169,496.0
19.095358452,485.0
19.108488735,469.0
19.121619017,470.0
19.134749300,459.0
19.147879583,464.0
19.161009865,493.0
19.174140148,450.0
19.187270431,494.0
19.200400713,432.0
19.213530996,453.0
19.226661279,497.0
19.239791561,459.0
19.252921844,479.0
19.266052127,484.0
19.279182409,455.0
19.292312692,443.0
19.305442975,481.0
19.318573257,472.0
19.331703540,449.0
19.344833823,456.0
19.357964106,481.0
19.371094388,465.0
19.384224671,467.0
19.397354954,459.0
19.410485236,453.0
19.423615519,416.0
19.436745802,448.0
19.449876084,470.0
19.463006367,483.0
19.476136650,470.0
19.489266932,501.0
19.502397215,466.0
19.515527498,467.0
19.528657780,478.0
19.541788063,475.0
19.554918346,491.0
19.568048628,468.0
19.581178911,458.0
19.594309194,461.0
19.607439476,477.0
19.620569759,463.0
19.633700042,458.0
19.646830324,490.0
19.659960607,527.0
19.673090890,524.0
19.686221172,523.0
19.699351455,559.0
19.712481738,508.0
19.725612020,543.0
19.738742303,606.0
19.751872586,545.0
19.765002868,624.0
19.778133151,674.0
19.791263434,677.0
19.804393717,679.0
19.817523999,783.0
19.830654282,866.0
19.843784565,885.0
19.856914847,902.0
19.870045130,946.0
19.883175413,869.0
19.896305695,834.0
19.909435978,766.0
19.922566261,737.0
19.935696543,572.0
19.948826826,553.0
19.961957109,535.0
19.975087391,518.0
19.988217674,454.0
20.001347957,502.0
20.014478239,467.0
20.027608522,466.0
20.040738805,441.0
20.053869087,472.0
20.066999370,440.0
20.080129653,437.0
20.093259935,427.0
20.106390218,483.0
20.119520501,542.0
20.132650783,455.0
20.145781066,469.0
20.158911349,461.0
20.172041631,495.0
20.185171914,442.0
20.198302197,449.0
20.211432479,433.0
20.224562762,489.0
20.237693045,461.0
20.250823328,468.0
20.263953610,480.0
20.277083893,446.0
20.290214176,460.0
20.303344458,459.0
20.316474741,480.0
20.329605024,457.0
20.342735306,484.0
20.355865589,404.0
20.368995872,465.0
20.382126154,455.0
20.395256437,441.0
20.408386720,416.0
20.421517002,436.0
20.434647285,462.0
20.447777568,470.0
20.460907850,490.0
20.474038133,459.0
20.487168416,456.0
20.500298698,482.0
20.513428981,503.0
20.526559264,458.0
20.539689546,447.0
20.552819829,475.0
20.565950112,468.0
20.579080394,428.0
20.592210677,446.0
20.605340960,442.0
20.618471242,461.0
20.631601525,451.0
20.644731808,467.0
20.657862090,469.0
20.670992373,463.0
20.684122656,444.0
20.697252939,411.0
20.710383221,449.0
20.723513504,510.0
20.736643787,478.0
20.749774069,434.0
20.762904352,416.0
20.776034635,442.0
20.789164917,500.0
20.802295200,467.0
20.815425483,453.0
20.828555765,432.0
20.841686048,478.0
20.854816331,432.0
20.867946613,441.0
20.881076896,469.0
20.894207179,494.0
20.907337461,454.0
20.920467744,466.0
20.933598027,439.0
20.946728309,429.0
20.959858592,460.0
20.972988875,443.0
20.986119157,480.0
20.999249440,462.0
21.012379723,460.0
21.025510005,445.0
21.038640288,441.0
21.051770571,491.0
21.064900853,411.0
21.078031136,439.0
21.091161419,424.0
21.104291702,423.0
21.117421984,453.0
21.130552267,448.0
21.143682550,453.0
21.156812832,450.0
21.169943115,438.0
21.183073398,436.0
21.196203680,474.0
21.209333963,438.0
21.222464246,439.0
21.235594528,478.0
21.248724811,475.0
21.261855094,481.0
21.274985376,456.0
21.288115659,420.0
21.301245942,445.0
21.314376224,495.0
21.327506507,483.0
21.340636790,506.0
21.353767072,420.0
21.366897355,437.0
21.380027638,497.0
21.393157920,418.0
21.406288203,438.0
21.419418486,448.0
21.432548768,433.0
21.445679051,427.0
21.458809334,485.0
21.471939616,425.0
21.485069899,458.0
21.498200182,415.0
21.511330464,448.0
21.524460747,423.0
21.537591030,470.0
21.550721313,420.0
21.563851595,448.0
21.576981878,446.0
21.590112161,460.0
21.603242443,407.0
21.616372726,426.0
21.629503009,478.0
21.642633291,505.0
21.655763574,444.0
21.668893857,458.0
21.682024139,489.0
21.695154422,455.0
21.708284705,430.0
21.721414987,421.0
21.734545270,450.0
21.747675553,448.0
21.760805835,456.0
21.773936118,450.0
21.787066401,501.0
21.800196683,476.0
21.813326966,463.0
21.826457249,466.0
21.839587531,444.0
21.852717814,431.0
21.865848097,461.0
21.878978379,482.0
21.892108662,435.0
21.905238945,457.0
21.918369227,452.0
21.931499510,462.0
21.944629793,483.0
21.957760075,444.0
21.970890358,441.0
21.984020641,430.0
21.997150924,441.0
22.010281206,431.0
22.023411489,439.0
22.036541772,439.0
22.049672054,470.0
22.062802337,448.0
22.075932620,451.0
22.089062902,438.0
22.102193185,404.0
22.115323468,437.0
22.128453750,430.0
22.141584033,444.0
22.154714316,495.0
22.167844598,494.0
22.180974881,439.0
22.194105164,422.0
22.207235446,408.0
22.220365729,451.0
22.233496012,458.0
22.246626294,498.0
22.259756577,486.0
22.272886860,417.0
22.286017142,479.0
22.299147425,463.0
22.312277708,453.0
22.325407990,416.0
22.338538273,413.0
22.351668556,489.0
22.364798838,423.0
22.377929121,460.0
22.391059404,440.0
22.404189686,475.0
22.417319969,446.0
22.430450252,443.0
22.443580535,440.0
22.456710817,472.0
22.469841100,462.0
22.482971383,452.0
22.496101665,467.0
22.509231948,417.0
22.522362231,470.0
22.535492513,473.0
22.548622796,456.0
22.561753079,452.0
22.574883361,391.0
22.588013644,423.0
22.601143927,461.0
22.614274209,473.0
22.627404492,416.0
22.640534775,459.0
22.653665057,440.0
22.666795340,412.0
22.679925623,456.0
22.693055905,444.0
22.706186188,441.0
22.719316471,480.0
22.732446753,412.0
22.745577036,474.0
22.758707319,413.0
22.771837601,409.0
22.784967884,444.0
22.798098167,434.0
22.811228449,457.0
22.824358732,434.0
22.837489015,437.0
22.850619297,448.0
22.863749580,463.0
22.876879863,480.0
22.890010146,430.0
22.903140428,433.0
22.916270711,440.0
22.929400994,455.0
22.942531276,451.0
22.955661559,448.0
22.968791842,470.0
22.981922124,410.0
22.995052407,433.0
23.008182690,429.0
23.021312972,447.0
23.034443255,433.0
23.047573538,447.0
23.060703820,448.0
23.073834103,420.0
23.086964386,426.0
23.100094668,449.0
23.113224951,438.0
23.126355234,448.0
23.139485516,472.0
23.152615799,442.0
23.165746082,455.0
23.178876364,464.0
23.192006647,447.0
23.205136930,440.0
23.218267212,469.0
23.231397495,411.0
23.244527778,439.0
23.257658060,508.0
23.270788343,438.0
23.283918626,440.0
23.297048908,424.0
23.310179191,468.0
23.323309474,456.0
23.336439757,471.0
23.349570039,446.0
23.362700322,408.0
23.375830605,410.0
23.388960887,449.0
23.402091170,489.0
23.415221453,461.0
23.428351735,440.0
23.441482018,476.0
23.454612301,385.0
23.467742583,414.0
23.480872866,458.0
23.494003149,474.0
23.507133431,444.0
23.520263714,455.0
23.533393997,399.0
23.546524279,445.0
23.559654562,421.0
23.572784845,458.0
23.585915127,443.0
23.599045410,442.0
23.612175693,473.0
23.625305975,448.0
23.638436258,478.0
23.651566541,473.0
23.664696823,450.0
23.677827106,418.0
23.690957389,422.0
23.704087671,480.0
23.717217954,455.0
23.730348237,473.0
23.743478519,463.0
23.756608802,507.0
23.769739085,423.0
23.782869368,415.0
23.795999650,443.0
23.809129933,442.0
23.822260216,429.0
23.835390498,449.0
23.848520781,450.0
23.861651064,437.0
23.874781346,473.0
23.887911629,474.0
23.901041912,442.0
23.914172194,445.0
23.927302477,459.0
23.940432760,470.0
23.953563042,454.0
23.966693325,438.0
23.979823608,424.0
23.992953890,437.0
24.006084173,447.0
24.019214456,457.0
24.032344738,470.0
24.045475021,468.0
24.058605304,477.0
24.071735586,495.0
24.084865869,482.0
24.097996152,462.0
24.111126434,511.0
24.124256717,494.0
24.137387000,484.0
24.150517282,501.0
24.163647565,498.0
24.176777848,571.0
24.189908130,597.0
24.203038413,550.0
24.216168696,645.0
24.229298979,620.0
24.242429261,683.0
24.255559544,815.0
24.268689827,822.0
24.281820109,898.0
24.294950392,1009.0
24.308080675,1198.0
24.321210957,1464.0
24.334341240,1578.0
24.347471523,1897.0
24.360601805,2102.0
24.373732088,2147.0
24.386862371,2067.0
24.399992653,1958.0
24.413122936,1886.0
24.426253219,1722.0
24.439383501,1501.0
24.452513784,1328.0
24.465644067,1120.0
24.478774349,1020.0
24.491904632,824.0
24.505034915,761.0
24.518165197,658.0
24.531295480,626.0
24.544425763,568.0
24.557556045,498.0
24.570686328,553.0
24.583816611,520.0
24.596946893,534.0
24.610077176,522.0
24.623207459,475.0
24.636337742,491.0
24.649468024,517.0
24.662598307,463.0
24.675728590,465.0
24.688858872,469.0
24.701989155,445.0
24.715119438,453.0
24.728249720,471.0
24.741380003,468.0
24.754510286,446.0
24.767640568,425.0
24.780770851,476.0
24.793901134,435.0
24.807031416,449.0
24.820161699,407.0
24.833291982,440.0
24.846422264,454.0
24.859552547,469.0
24.872682830,444.0
24.885813112,440.0
24.898943395,481.0
24.912073678,409.0
24.925203960,460.0
24.938334243,437.0
24.951464526,463.0
24.964594808,445.0
24.977725091,428.0
24.990855374,424.0
25.003985656,440.0
25.017115939,439.0
25.030246222,415.0
25.043376504,417.0
25.056506787,428.0
25.069637070,448.0
25.082767353,435.0
25.095897635,431.0
25.109027918,432.0
25.122158201,430.0
25.135288483,405.0
25.148418766,426.0
25.161549049,455.0
25.174679331,468.0
25.187809614,411.0
25.200939897,483.0
25.214070179,420.0
25.227200462,416.0
25.240330745,449.0
25.253461027,431.0
25.266591310,469.0
25.279721593,437.0
25.292851875,454.0
25.305982158,437.0
25.319112441,436.0
25.332242723,431.0
25.345373006,442.0
25.358503289,453.0
25.371633571,483.0
25.384763854,439.0
25.397894137,423.0
25.411024419,445.0
25.424154702,438.0
25.437284985,455.0
25.450415267,426.0
25.463545550,466.0
25.476675833,488.0
25.489806115,442.0
25.502936398,415.0
25.516066681,420.0
25.529196964,433.0
25.542327246,455.0
25.555457529,430.0
25.568587812,418.0
25.581718094,471.0
25.594848377,452.0
25.607978660,463.0
25.621108942,442.0
25.634239225,437.0
25.647369508,444.0
25.660499790,427.0
25.673630073,448.0
25.686760356,426.0
25.699890638,417.0
25.713020921,421.0
25.726151204,433.0
25.739281486,456.0
25.752411769,434.0
25.765542052,396.0
25.778672334,438.0
25.791802617,442.0
25.804932900,453.0
25.818063182,427.0
25.831193465,473.0
25.844323748,406.0
25.857454030,420.0
25.870584313,450.0
25.883714596,456.0
25.896844878,462.0
25.909975161,429.0
25.923105444,441.0
25.936235726,457.0
25.949366009,445.0
25.962496292,480.0
25.975626575,450.0
25.988756857,467.0
26.001887140,450.0
26.015017423,445.0
26.028147705,405.0
26.041277988,476.0
26.054408271,462.0
26.067538553,479.0
26.080668836,491.0
26.093799119,463.0
26.106929401,456.0
26.120059684,464.0
26.133189967,473.0
26.146320249,490.0
26.159450532,472.0
26.172580815,501.0
26.185711097,447.0
26.198841380,487.0
26.211971663,451.0
26.225101945,494.0
26.238232228,535.0
26.251362511,485.0
26.264492793,491.0
26.277623076,514.0
26.290753359,512.0
26.303883641,477.0
26.317013924,503.0
26.330144207,562.0
26.343274489,553.0
26.356404772,548.0
26.369535055,512.0
26.382665337,577.0
26.395795620,563.0
26.408925903,637.0
26.422056186,684.0
26.435186468,668.0
26.448316751,745.0
26.461447034,793.0
26.474577316,855.0
26.487707599,821.0
26.500837882,863.0
26.513968164,936.0
26.527098447,912.0
26.540228730,842.0
26.553359012,804.0
26.566489295,747.0
26.579619578,745.0
26.592749860,681.0
26.605880143,673.0
26.619010426,652.0
26.632140708,651.0
26.645270991,610.0
26.658401274,544.0
26.671531556,525.0
26.684661839,596.0
26.697792122,512.0
26.710922404,524.0
26.724052687,479.0
26.737182970,461.0
26.750313252,484.0
26.763443535,488.0
26.776573818,477.0
26.789704100,501.0
26.802834383,493.0
26.815964666,467.0
26.829094948,501.0
26.842225231,485.0
26.855355514,478.0
26.868485797,452.0
26.881616079,468.0
26.894746362,448.0
26.907876645,414.0
26.921006927,422.0
26.934137210,436.0
26.947267493,442.0
26.960397775,440.0
26.973528058,465.0
26.986658341,472.0
26.999788623,428.0
27.012918906,435.0
27.026049189,474.0
27.039179471,430.0
27.052309754,407.0
27.065440037,429.0
27.078570319,437.0
27.091700602,407.0
27.104830885,420.0
27.117961167,418.0
27.131091450,425.0
27.144221733,426.0
27.157352015,430.0
27.170482298,454.0
27.183612581,430.0
27.196742863,404.0
27.209873146,412.0
27.223003429,421.0
27.236133711,405.0
27.249263994,421.0
27.262394277,416.0
27.275524559,459.0
27.288654842,438.0
27.301785125,404.0
27.314915408,453.0
27.328045690,441.0
27.341175973,444.0
27.354306256,400.0
27.367436538,444.0
27.380566821,420.0
27.393697104,477.0
27.406827386,414.0
27.419957669,436.0
27.433087952,446.0
27.446218234,429.0
27.459348517,471.0
27.472478800,421.0
27.485609082,490.0
27.498739365,427.0
27.511869648,400.0
27.524999930,442.0
27.538130213,461.0
27.551260496,447.0
27.564390778,468.0
27.577521061,460.0
27.590651344,470.0
27.603781626,474.0
27.616911909,440.0
27.630042192,461.0
27.643172474,447.0
27.656302757,442.0
27.669433040,424.0
27.682563322,438.0
27.695693605,456.0
27.708823888,432.0
27.721954171,433.0
27.735084453,432.0
27.748214736,452.0
27.761345019,419.0
27.774475301,473.0
27.787605584,468.0
27.800735867,448.0
27.813866149,451.0
27.826996432,465.0
27.840126715,474.0
27.853256997,465.0
27.866387280,489.0
27.879517563,481.0
27.892647845,505.0
27.905778128,495.0
27.918908411,528.0
27.932038693,536.0
27.945168976,611.0
27.958299259,600.0
27.971429541,599.0
27.984559824,692.0
27.997690107,658.0
28.010820389,738.0
28.023950672,787.0
28.037080955,840.0
28.050211237,981.0
28.063341520,1019.0
28.076471803,1195.0
28.089602085,1330.0
28.102732368,1564.0
28.115862651,1920.0
28.128992933,2346.0
28.142123216,3012.0
28.155253499,3798.0
28.168383782,4745.0
28.181514064,5580.0
28.194644347,5751.0
28.207774630,5370.0
28.220904912,4421.0
28.234035195,3861.0
28.247165478,3656.0
28.260295760,3454.0
28.273426043,2903.0
28.286556326,2409.0
28.299686608,1839.0
28.312816891,1360.0
28.325947174,1044.0
28.339077456,913.0
28.352207739,761.0
28.365338022,750.0
28.378468304,637.0
28.391598587,623.0
28.404728870,619.0
28.417859152,571.0
28.430989435,617.0
28.444119718,549.0
28.457250000,544.0
28.470380283,507.0
28.483510566,555.0
28.496640848,517.0
28.509771131,460.0
28.522901414,453.0
28.536031696,469.0
28.549161979,464.0
28.562292262,442.0
28.575422544,493.0
28.588552827,452.0
28.601683110,451.0
28.614813393,446.0
28.627943675,414.0
28.641073958,421.0
28.654204241,480.0
28.667334523,445.0
28.680464806,383.0
28.693595089,430.0
28.706725371,427.0
28.719855654,395.0
28.732985937,440.0
28.746116219,464.0
28.759246502,412.0
28.772376785,436.0
28.785507067,424.0
28.798637350,396.0
28.811767633,422.0
28.824897915,432.0
28.838028198,417.0
28.851158481,377.0
28.864288763,422.0
28.877419046,412.0
28.890549329,374.0
28.903679611,409.0
28.916809894,388.0
28.929940177,424.0
28.943070459,406.0
28.956200742,399.0
28.969331025,441.0
28.982461307,376.0
28.995591590,391.0
29.008721873,408.0
29.021852155,373.0
29.034982438,386.0
29.048112721,426.0
29.061243004,397.0
29.074373286,433.0
29.087503569,389.0
29.100633852,387.0
29.113764134,385.0
29.126894417,397.0
29.140024700,386.0
29.153154982,341.0
29.166285265,386.0
29.179415548,342.0
29.192545830,406.0
29.205676113,384.0
29.218806396,399.0
29.231936678,390.0
29.245066961,357.0
29.258197244,434.0
29.271327526,407.0
29.284457809,371.0
29.297588092,363.0
29.310718374,358.0
29.323848657,370.0
29.336978940,392.0
29.350109222,342.0
29.363239505,373.0
29.376369788,388.0
29.389500070,411.0
29.402630353,374.0
29.415760636,366.0
29.428890918,379.0
29.442021201,392.0
29.455151484,427.0
29.468281766,364.0
29.481412049,377.0
29.494542332,365.0
29.507672615,377.0
29.520802897,361.0
29.533933180,347.0
29.547063463,374.0
29.560193745,347.0
29.573324028,402.0
29.586454311,395.0
29.599584593,362.0
29.612714876,376.0
29.625845159,369.0
29.638975441,386.0
29.652105724,387.0
29.665236007,354.0
29.678366289,365.0
29.691496572,401.0
29.704626855,355.0
29.717757137,371.0
29.730887420,383.0
29.744017703,351.0
29.757147985,350.0
29.770278268,370.0
29.783408551,375.0
29.796538833,331.0
29.809669116,361.0
29.822799399,339.0
29.835929681,345.0
29.849059964,345.0
29.862190247,369.0
29.875320529,365.0
29.888450812,374.0
29.901581095,339.0
29.914711377,341.0
29.927841660,346.0
29.940971943,404.0
29.954102226,334.0
29.967232508,369.0
29.980362791,398.0
29.993493074,383.0
30.006623356,365.0
30.019753639,402.0
30.032883922,354.0
30.046014204,374.0
30.059144487,359.0
30.072274770,360.0
30.085405052,341.0
30.098535335,344.0
30.111665618,393.0
30.124795900,348.0
30.137926183,371.0
30.151056466,368.0
30.164186748,320.0
30.177317031,370.0
30.190447314,348.0
30.203577596,382.0
30.216707879,350.0
30.229838162,359.0
30.242968444,355.0
30.256098727,367.0
30.269229010,390.0
30.282359292,354.0
30.295489575,393.0
30.308619858,341.0
30.321750140,394.0
30.334880423,329.0
30.348010706,343.0
30.361140988,374.0
30.374271271,365.0
30.387401554,362.0
30.400531837,317.0
30.413662119,336.0
30.426792402,377.0
30.439922685,354.0
30.453052967,360.0
30.466183250,342.0
30.479313533,418.0
30.492443815,368.0
30.505574098,349.0
30.518704381,357.0
30.531834663,368.0
30.544964946,359.0
30.558095229,359.0
30.571225511,373.0
30.584355794,328.0
30.597486077,358.0
30.610616359,408.0
30.623746642,390.0
30.636876925,376.0
30.650007207,364.0
30.663137490,382.0
30.676267773,346.0
30.689398055,353.0
30.702528338,332.0
30.715658621,375.0
30.728788903,344.0
30.741919186,357.0
30.755049469,391.0
30.768179751,367.0
30.781310034,354.0
30.794440317,364.0
30.807570600,372.0
30.820700882,361.0
30.833831165,382.0
30.846961448,344.0
30.860091730,324.0
30.873222013,350.0
30.886352296,327.0
30.899482578,364.0
30.912612861,383.0
30.925743144,347.0
30.938873426,370.0
30.952003709,353.0
30.965133992,364.0
30.978264274,347.0
30.991394557,360.0
31.004524840,358.0
31.017655122,355.0
31.030785405,374.0
31.043915688,342.0
31.057045970,362.0
31.070176253,362.0
31.083306536,338.0
31.096436818,342.0
31.109567101,383.0
31.122697384,367.0
31.135827666,370.0
31.148957949,366.0
31.162088232,389.0
31.175218514,359.0
31.188348797,358.0
31.201479080,351.0
31.214609362,375.0
31.227739645,365.0
31.240869928,398.0
31.254000211,397.0
31.267130493,403.0
31.280260776,367.0
31.293391059,372.0
31.306521341,382.0
31.319651624,407.0
31.332781907,418.0
31.345912189,390.0
31.359042472,384.0
31.372172755,413.0
31.385303037,376.0
31.398433320,402.0
31.411563603,407.0
31.424693885,403.0
31.437824168,437.0
31.450954451,444.0
31.464084733,443.0
31.477215016,486.0
31.490345299,508.0
31.503475581,517.0
31.516605864,614.0
31.529736147,679.0
31.542866429,759.0
31.555996712,859.0
31.569126995,1032.0
31.582257277,1258.0
31.595387560,1303.0
31.608517843,1304.0
31.621648125,1255.0
31.634778408,1179.0
31.647908691,1120.0
31.661038973,1021.0
31.674169256,1055.0
31.687299539,979.0
31.700429822,827.0
31.713560104,729.0
31.726690387,654.0
31.739820670,612.0
31.752950952,531.0
31.766081235,494.0
31.779211518,454.0
31.792341800,411.0
31.805472083,424.0
31.818602366,376.0
31.831732648,396.0
31.844862931,376.0
31.857993214,386.0
31.871123496,366.0
31.884253779,335.0
31.897384062,361.0
31.910514344,376.0
31.923644627,352.0
31.936774910,331.0
31.949905192,327.0
31.963035475,332.0
31.976165758,381.0
31.989296040,302.0
32.002426323,327.0
32.015556606,307.0
32.028686888,304.0
32.041817171,333.0
32.054947454,294.0
32.068077736,341.0
32.081208019,344.0
32.094338302,344.0
32.107468584,305.0
32.120598867,359.0
32.133729150,374.0
32.146859433,316.0
32.159989715,335.0
32.173119998,319.0
32.186250281,325.0
32.199380563,328.0
32.212510846,304.0
32.225641129,325.0
32.238771411,310.0
32.251901694,320.0
32.265031977,327.0
32.278162259,360.0
32.291292542,301.0
32.304422825,351.0
32.317553107,306.0
32.330683390,315.0
32.343813673,345.0
32.356943955,318.0
32.370074238,365.0
32.383204521,319.0
32.396334803,302.0
32.409465086,318.0
32.422595369,320.0
32.435725651,311.0
32.448855934,304.0
32.461986217,320.0
32.475116499,326.0
32.488246782,334.0
32.501377065,347.0
32.514507347,320.0
32.527637630,337.0
32.540767913,296.0
32.553898195,338.0
32.567028478,340.0
32.580158761,337.0
32.593289044,315.0
32.606419326,342.0
32.619549609,330.0
32.632679892,313.0
32.645810174,314.0
32.658940457,331.0
32.672070740,315.0
32.685201022,336.0
32.698331305,298.0
32.711461588,332.0
32.724591870,332.0
32.737722153,321.0
32.750852436,290.0
32.763982718,344.0
32.777113001,304.0
32.790243284,312.0
32.803373566,277.0
32.816503849,305.0
32.829634132,310.0
32.842764414,310.0
32.855894697,281.0
32.869024980,337.0
32.882155262,324.0
32.895285545,308.0
32.908415828,313.0
32.921546110,311.0
32.934676393,351.0
32.947806676,318.0
32.960936958,334.0
32.974067241,301.0
32.987197524,328.0
33.000327806,331.0
33.013458089,337.0
33.026588372,315.0
33.039718655,320.0
33.052848937,342.0
33.065979220,331.0
33.079109503,326.0
33.092239785,287.0
33.105370068,341.0
33.118500351,291.0
33.131630633,309.0
33.144760916,350.0
33.157891199,313.0
33.171021481,312.0
33.184151764,310.0
33.197282047,295.0
33.210412329,280.0
33.223542612,296.0
33.236672895,316.0
33.249803177,303.0
33.262933460,325.0
33.276063743,313.0
33.289194025,337.0
33.302324308,332.0
33.315454591,319.0
33.328584873,314.0
33.341715156,305.0
33.354845439,294.0
33.367975721,326.0
33.381106004,358.0
33.394236287,298.0
33.407366569,317.0
33.420496852,325.0
33.433627135,315.0
33.446757417,270.0
33.459887700,309.0
33.473017983,357.0
33.486148266,317.0
33.499278548,312.0
33.512408831,359.0
33.525539114,301.0
33.538669396,317.0
33.551799679,331.0
33.564929962,342.0
33.578060244,338.0
33.591190527,346.0
33.604320810,350.0
33.617451092,390.0
33.630581375,375.0
33.643711658,389.0
33.656841940,409.0
33.669972223,408.0
33.683102506,407.0
33.696232788,449.0
33.709363071,397.0
33.722493354,431.0
33.735623636,420.0
33.748753919,424.0
33.761884202,425.0
33.775014484,434.0
33.788144767,400.0
33.801275050,432.0
33.814405332,390.0
33.827535615,416.0
33.840665898,389.0
33.853796180,353.0
33.866926463,368.0
33.880056746,342.0
33.893187028,372.0
33.906317311,398.0
33.919447594,356.0
33.932577877,371.0
33.945708159,355.0
33.958838442,323.0
33.971968725,314.0
33.985099007,338.0
33.998229290,326.0
34.011359573,325.0
34.024489855,321.0
34.037620138,315.0
34.050750421,316.0
34.063880703,312.0
34.077010986,362.0
34.090141269,302.0
34.103271551,323.0
34.116401834,311.0
34.129532117,333.0
34.142662399,299.0
34.155792682,348.0
34.168922965,315.0
34.182053247,296.0
34.195183530,313.0
34.208313813,306.0
34.221444095,308.0
34.234574378,314.0
34.247704661,322.0
34.260834943,292.0
34.273965226,248.0
34.287095509,287.0
34.300225791,301.0
34.313356074,324.0
34.326486357,301.0
34.339616640,336.0
34.352746922,309.0
34.365877205,299.0
34.379007488,321.0
34.392137770,305.0
34.405268053,285.0
34.418398336,279.0
34.431528618,288.0
34.444658901,319.0
34.457789184,315.0
34.470919466,328.0
34.484049749,301.0
34.497180032,294.0
34.510310314,304.0
34.523440597,307.0
34.536570880,293.0
34.549701162,297.0
34.562831445,313.0
34.575961728,330.0
34.589092010,330.0
34.602222293,384.0
34.615352576,350.0
34.628482858,382.0
34.641613141,429.0
34.654743424,404.0
34.667873706,464.0
34.681003989,525.0
34.694134272,516.0
34.707264554,574.0
34.720394837,658.0
34.733525120,617.0
34.746655402,612.0
34.759785685,620.0
34.772915968,665.0
34.786046251,547.0
34.799176533,619.0
34.812306816,530.0
34.825437099,506.0
34.838567381,442.0
34.851697664,480.0
34.864827947,393.0
34.877958229,388.0
34.891088512,359.0
34.904218795,371.0
34.917349077,336.0
34.930479360,377.0
34.943609643,336.0
34.956739925,342.0
34.969870208,360.0
34.983000491,275.0
34.996130773,306.0
35.009261056,302.0
35.022391339,281.0
35.035521621,328.0
35.048651904,327.0
35.061782187,290.0
35.074912469,268.0
35.088042752,312.0
35.101173035,298.0
35.114303317,291.0
35.127433600,261.0
35.140563883,309.0
35.153694165,290.0
35.166824448,313.0
35.179954731,273.0
35.193085013,287.0
35.206215296,283.0
35.219345579,292.0
35.232475862,294.0
35.245606144,281.0
35.258736427,281.0
35.271866710,306.0
35.284996992,276.0
35.298127275,297.0
35.311257558,284.0
35.324387840,285.0
35.337518123,273.0
35.350648406,264.0
35.363778688,293.0
35.376908971,322.0
35.390039254,287.0
35.403169536,262.0
35.416299819,302.0
35.429430102,292.0
35.442560384,269.0
35.455690667,290.0
35.468820950,295.0
35.481951232,241.0
35.495081515,287.0
35.508211798,261.0
35.521342080,275.0
35.534472363,265.0
35.547602646,272.0
35.560732928,268.0
35.573863211,297.0
35.586993494,242.0
35.600123776,288.0
35.613254059,297.0
35.626384342,289.0
35.639514624,246.0
35.652644907,295.0
35.665775190,276.0
35.678905473,275.0
35.692035755,262.0
35.705166038,261.0
35.718296321,295.0
35.731426603,297.0
35.744556886,271.0
35.757687169,271.0
35.770817451,269.0
35.783947734,281.0
35.797078017,256.0
35.810208299,280.0
35.823338582,239.0
35.836468865,248.0
35.849599147,272.0
35.862729430,271.0
35.875859713,262.0
35.888989995,283.0
35.902120278,275.0
35.915250561,239.0
35.928380843,324.0
35.941511126,265.0
35.954641409,268.0
35.967771691,314.0
35.980901974,261.0
35.994032257,266.0
36.007162539,271.0
36.020292822,267.0
36.033423105,281.0
36.046553387,239.0
36.059683670,296.0
36.072813953,245.0
36.085944235,288.0
36.099074518,234.0
36.112204801,272.0
36.125335084,259.0
36.138465366,286.0
36.151595649,286.0
36.164725932,289.0
36.177856214,282.0
36.190986497,270.0
36.204116780,247.0
36.217247062,258.0
36.230377345,262.0
36.243507628,282.0
36.256637910,263.0
36.269768193,262.0
36.282898476,270.0
36.296028758,274.0
36.309159041,274.0
36.322289324,273.0
36.335419606,290.0
36.348549889,260.0
36.361680172,233.0
36.374810454,278.0
36.387940737,288.0
36.401071020,286.0
36.414201302,297.0
36.427331585,269.0
36.440461868,271.0
36.453592150,244.0
36.466722433,255.0
36.479852716,241.0
36.492982998,276.0
36.506113281,279.0
36.519243564,221.0
36.532373846,261.0
36.545504129,272.0
36.558634412,306.0
36.571764695,262.0
36.584894977,266.0
36.598025260,276.0
36.611155543,294.0
36.624285825,281.0
36.637416108,255.0
36.650546391,273.0
36.663676673,262.0
36.676806956,265.0
36.689937239,233.0
36.703067521,276.0
36.716197804,263.0
36.729328087,292.0
36.742458369,309.0
36.755588652,264.0
36.768718935,268.0
36.781849217,257.0
36.794979500,264.0
36.808109783,275.0
36.821240065,266.0
36.834370348,271.0
36.847500631,267.0
36.860630913,274.0
36.873761196,268.0
36.886891479,273.0
36.900021761,250.0
36.913152044,280.0
36.926282327,256.0
36.939412609,258.0
36.952542892,238.0
36.965673175,270.0
36.978803457,246.0
36.991933740,241.0
37.005064023,249.0
37.018194306,293.0
37.031324588,245.0
37.044454871,262.0
37.057585154,287.0
37.070715436,280.0
37.083845719,231.0
37.096976002,278.0
37.110106284,243.0
37.123236567,246.0
37.136366850,288.0
37.149497132,256.0
37.162627415,307.0
37.175757698,249.0
37.188887980,231.0
37.202018263,301.0
37.215148546,281.0
37.228278828,268.0
37.241409111,256.0
37.254539394,277.0
37.267669676,276.0
37.280799959,281.0
37.293930242,259.0
37.307060524,256.0
37.320190807,284.0
37.333321090,278.0
37.346451372,283.0
37.359581655,280.0
37.372711938,292.0
37.385842220,261.0
37.398972503,278.0
37.412102786,282.0
37.425233069,295.0
37.438363351,272.0
37.451493634,308.0
37.464623917,304.0
37.477754199,305.0
37.490884482,346.0
37.504014765,321.0
37.517145047,320.0
37.530275330,331.0
37.543405613,314.0
37.556535895,349.0
37.569666178,340.0
37.582796461,374.0
37.595926743,390.0
37.609057026,384.0
37.622187309,421.0
37.635317591,406.0
37.648447874,449.0
37.661578157,494.0
37.674708439,500.0
37.687838722,547.0
37.700969005,620.0
37.714099287,662.0
37.727229570,751.0
37.740359853,789.0
37.753490135,852.0
37.766620418,906.0
37.779750701,1005.0
37.792880983,946.0
37.806011266,943.0
37.819141549,947.0
37.832271831,878.0
37.845402114,919.0
37.858532397,917.0
37.871662680,830.0
37.884792962,805.0
37.897923245,767.0
37.911053528,773.0
37.924183810,704.0
37.937314093,637.0
37.950444376,607.0
37.963574658,530.0
37.976704941,528.0
37.989835224,499.0
38.002965506,469.0
38.016095789,407.0
38.029226072,419.0
38.042356354,390.0
38.055486637,366.0
38.068616920,351.0
38.081747202,359.0
38.094877485,344.0
38.108007768,334.0
38.121138050,309.0
38.134268333,361.0
38.147398616,312.0
38.160528898,334.0
38.173659181,294.0
38.186789464,282.0
38.199919746,264.0
38.213050029,282.0
38.226180312,278.0
38.239310594,236.0
38.252440877,259.0
38.265571160,263.0
38.278701442,280.0
38.291831725,272.0
38.304962008,243.0
38.318092291,280.0
38.331222573,278.0
38.344352856,283.0
38.357483139,239.0
38.370613421,255.0
38.383743704,234.0
38.396873987,280.0
38.410004269,282.0
38.423134552,266.0
38.436264835,234.0
38.449395117,261.0
38.462525400,270.0
38.475655683,247.0
38.488785965,280.0
38.501916248,259.0
38.515046531,275.0
38.528176813,239.0
38.541307096,262.0
38.554437379,214.0
38.567567661,274.0
38.580697944,250.0
38.593828227,263.0
38.606958509,276.0
38.620088792,227.0
38.633219075,224.0
38.646349357,237.0
38.659479640,248.0
38.672609923,247.0
38.685740205,247.0
38.698870488,266.0
38.712000771,246.0
38.725131053,258.0
38.738261336,235.0
38.751391619,226.0
38.764521902,232.0
38.777652184,272.0
38.790782467,231.0
38.803912750,275.0
38.817043032,255.0
38.830173315,247.0
38.843303598,257.0
38.856433880,262.0
38.869564163,239.0
38.882694446,248.0
38.895824728,227.0
38.908955011,246.0
38.922085294,267.0
38.935215576,240.0
38.948345859,292.0
38.961476142,265.0
38.974606424,257.0
38.987736707,273.0
39.000866990,224.0
39.013997272,229.0
39.027127555,237.0
39.040257838,256.0
39.053388120,283.0
39.066518403,236.0
39.079648686,221.0
39.092778968,216.0
39.105909251,247.0
39.119039534,238.0
39.132169816,238.0
39.145300099,260.0
39.158430382,279.0
39.171560664,242.0
39.184690947,264.0
39.197821230,224.0
39.210951513,241.0
39.224081795,247.0
39.237212078,239.0
39.250342361,230.0
39.263472643,272.0
39.276602926,246.0
39.289733209,230.0
39.302863491,235.0
39.315993774,260.0
39.329124057,256.0
39.342254339,263.0
39.355384622,255.0
39.368514905,276.0
39.381645187,223.0
39.394775470,213.0
39.407905753,248.0
39.421036035,231.0
39.434166318,209.0
39.447296601,258.0
39.460426883,231.0
39.473557166,259.0
39.486687449,243.0
39.499817731,241.0
39.512948014,231.0
39.526078297,246.0
39.539208579,281.0
39.552338862,255.0
39.565469145,236.0
39.578599427,220.0
39.591729710,270.0
39.604859993,273.0
39.617990275,259.0
39.631120558,231.0
39.644250841,248.0
39.657381124,269.0
39.670511406,280.0
39.683641689,245.0
39.696771972,210.0
39.709902254,244.0
39.723032537,226.0
39.736162820,228.0
39.749293102,237.0
39.762423385,246.0
39.775553668,216.0
39.788683950,267.0
39.801814233,221.0
39.814944516,232.0
39.828074798,220.0
39.841205081,247.0
39.854335364,224.0
39.867465646,268.0
39.880595929,306.0
39.893726212,256.0
39.906856494,243.0
39.919986777,234.0
39.933117060,220.0
39.946247342,248.0
39.959377625,265.0
39.972507908,245.0
39.985638190,235.0
39.998768473,266.0
40.011898756,220.0
40.025029038,283.0
40.038159321,262.0
40.051289604,235.0
40.064419886,247.0
40.077550169,282.0
40.090680452,264.0
40.103810735,285.0
40.116941017,297.0
40.130071300,289.0
40.143201583,301.0
40.156331865,314.0
40.169462148,364.0
40.182592431,357.0
40.195722713,402.0
40.208852996,465.0
40.221983279,470.0
40.235113561,588.0
40.248243844,670.0
40.261374127,772.0
40.274504409,820.0
40.287634692,902.0
40.300764975,902.0
40.313895257,911.0
40.327025540,898.0
40.340155823,948.0
40.353286105,922.0
40.366416388,834.0
40.379546671,836.0
40.392676953,778.0
40.405807236,770.0
40.418937519,686.0
40.432067801,658.0
40.445198084,599.0
40.458328367,529.0
40.471458649,486.0
40.484588932,463.0
40.497719215,482.0
40.510849498,392.0
40.523979780,378.0
40.537110063,347.0
40.550240346,320.0
40.563370628,279.0
40.576500911,288.0
40.589631194,274.0
40.602761476,262.0
40.615891759,238.0
40.629022042,211.0
40.642152324,248.0
40.655282607,242.0
40.668412890,208.0
40.681543172,235.0
40.694673455,207.0
40.707803738,224.0
40.720934020,244.0
40.734064303,241.0
40.747194586,267.0
40.760324868,241.0
40.773455151,269.0
40.786585434,241.0
40.799715716,239.0
40.812845999,266.0
40.825976282,226.0
40.839106564,227.0
40.852236847,223.0
40.865367130,225.0
40.878497412,265.0
40.891627695,264.0
40.904757978,227.0
40.917888260,229.0
40.931018543,233.0
40.944148826,212.0
40.957279109,239.0
40.970409391,256.0
40.983539674,225.0
40.996669957,234.0
41.009800239,217.0
41.022930522,219.0
41.036060805,228.0
41.049191087,235.0
41.062321370,226.0
41.075451653,236.0
41.088581935,266.0
41.101712218,207.0
41.114842501,234.0
41.127972783,221.0
41.141103066,210.0
41.154233349,229.0
41.167363631,219.0
41.180493914,233.0
41.193624197,236.0
41.206754479,265.0
41.219884762,218.0
41.233015045,259.0
41.246145327,201.0
41.259275610,217.0
41.272405893,234.0
41.285536175,238.0
41.298666458,258.0
41.311796741,222.0
41.324927023,221.0
41.338057306,205.0
41.351187589,219.0
41.364317871,234.0
41.377448154,220.0
41.390578437,232.0
41.403708720,231.0
41.416839002,243.0
41.429969285,258.0
41.443099568,246.0
41.456229850,256.0
41.469360133,229.0
41.482490416,216.0
41.495620698,221.0
41.508750981,223.0
41.521881264,234.0
41.535011546,216.0
41.548141829,292.0
41.561272112,227.0
41.574402394,218.0
41.587532677,232.0
41.600662960,224.0
41.613793242,230.0
41.626923525,263.0
41.640053808,225.0
41.653184090,220.0
41.666314373,243.0
41.679444656,243.0
41.692574938,244.0
41.705705221,268.0
41.718835504,259.0
41.731965786,259.0
41.745096069,261.0
41.758226352,193.0
41.771356634,222.0
41.784486917,225.0
41.797617200,234.0
41.810747482,213.0
41.823877765,211.0
41.837008048,244.0
41.850138331,223.0
41.863268613,263.0
41.876398896,239.0
41.889529179,233.0
41.902659461,222.0
41.915789744,249.0
41.928920027,239.0
41.942050309,245.0
41.955180592,232.0
41.968310875,207.0
41.981441157,238.0
41.994571440,237.0
42.007701723,217.0
42.020832005,236.0
42.033962288,229.0
42.047092571,223.0
42.060222853,262.0
42.073353136,229.0
42.086483419,243.0
42.099613701,246.0
42.112743984,220.0
42.125874267,228.0
42.139004549,242.0
42.152134832,222.0
42.165265115,203.0
42.178395397,231.0
42.191525680,230.0
42.204655963,260.0
42.217786245,265.0
42.230916528,259.0
42.244046811,257.0
42.257177093,229.0
42.270307376,256.0
42.283437659,235.0
42.296567942,236.0
42.309698224,223.0
42.322828507,257.0
42.335958790,220.0
42.349089072,261.0
42.362219355,217.0
42.375349638,217.0
42.388479920,230.0
42.401610203,260.0
42.414740486,270.0
42.427870768,231.0
42.441001051,229.0
42.454131334,255.0
42.467261616,241.0
42.480391899,241.0
42.493522182,229.0
42.506652464,262.0
42.519782747,250.0
42.532913030,256.0
42.546043312,245.0
42.559173595,280.0
42.572303878,249.0
42.585434160,264.0
42.598564443,247.0
42.611694726,246.0
42.624825008,266.0
42.637955291,306.0
42.651085574,266.0
42.664215856,228.0
42.677346139,264.0
42.690476422,261.0
42.703606704,300.0
42.716736987,287.0
42.729867270,327.0
42.742997553,333.0
42.756127835,370.0
42.769258118,425.0
42.782388401,454.0
42.795518683,560.0
42.808648966,642.0
42.821779249,742.0
42.834909531,735.0
42.848039814,812.0
42.861170097,782.0
42.874300379,728.0
42.887430662,705.0
42.900560945,738.0
42.913691227,736.0
42.926821510,740.0
42.939951793,701.0
42.953082075,713.0
42.966212358,682.0
42.979342641,612.0
42.992472923,565.0
43.005603206,549.0
43.018733489,481.0
43.031863771,404.0
43.044994054,453.0
43.058124337,377.0
43.071254619,353.0
43.084384902,343.0
43.097515185,349.0
43.110645467,304.0
43.123775750,310.0
43.136906033,305.0
43.150036315,275.0
43.163166598,269.0
43.176296881,283.0
43.189427164,259.0
43.202557446,247.0
43.215687729,213.0
43.228818012,217.0
43.241948294,226.0
43.255078577,292.0
43.268208860,221.0
43.281339142,220.0
43.294469425,211.0
43.307599708,205.0
43.320729990,224.0
43.333860273,217.0
43.346990556,236.0
43.360120838,209.0
43.373251121,210.0
43.386381404,216.0
43.399511686,226.0
43.412641969,221.0
43.425772252,234.0
43.438902534,221.0
43.452032817,239.0
43.465163100,218.0
43.478293382,238.0
43.491423665,250.0
43.504553948,201.0
43.517684230,216.0
43.530814513,235.0
43.543944796,209.0
43.557075078,223.0
43.570205361,197.0
43.583335644,227.0
43.596465927,230.0
43.609596209,187.0
43.622726492,190.0
43.635856775,215.0
43.648987057,224.0
43.662117340,192.0
43.675247623,195.0
43.688377905,215.0
43.701508188,231.0
43.714638471,227.0
43.727768753,222.0
43.740899036,237.0
43.754029319,209.0
43.767159601,196.0
43.780289884,208.0
43.793420167,210.0
43.806550449,222.0
43.819680732,236.0
43.832811015,196.0
43.845941297,271.0
43.859071580,227.0
43.872201863,188.0
43.885332145,226.0
43.898462428,223.0
43.911592711,219.0
43.924722993,221.0
43.937853276,228.0
43.950983559,196.0
43.964113841,197.0
43.977244124,208.0
43.990374407,226.0
44.003504689,208.0
44.016634972,213.0
44.029765255,203.0
44.042895538,215.0
44.056025820,220.0
44.069156103,176.0
44.082286386,217.0
44.095416668,230.0
44.108546951,234.0
44.121677234,219.0
44.134807516,211.0
44.147937799,211.0
44.161068082,210.0
44.174198364,237.0
44.187328647,211.0
44.200458930,216.0
44.213589212,215.0
44.226719495,219.0
44.239849778,204.0
44.252980060,205.0
44.266110343,193.0
44.279240626,217.0
44.292370908,201.0
44.305501191,205.0
44.318631474,213.0
44.331761756,216.0
44.344892039,212.0
44.358022322,214.0
44.371152604,206.0
44.384282887,177.0
44.397413170,204.0
44.410543452,211.0
44.423673735,230.0
44.436804018,222.0
44.449934300,212.0
44.463064583,230.0
44.476194866,197.0
44.489325149,229.0
44.502455431,256.0
44.515585714,205.0
44.528715997,238.0
44.541846279,203.0
44.554976562,223.0
44.568106845,232.0
44.581237127,218.0
44.594367410,205.0
44.607497693,204.0
44.620627975,225.0
44.633758258,198.0
44.646888541,211.0
44.660018823,209.0
44.673149106,235.0
44.686279389,234.0
44.699409671,206.0
44.712539954,221.0
44.725670237,219.0
44.738800519,216.0
44.751930802,232.0
44.765061085,199.0
44.778191367,197.0
44.791321650,201.0
44.804451933,210.0
44.817582215,212.0
44.830712498,206.0
44.843842781,199.0
44.856973063,217.0
44.870103346,228.0
44.883233629,215.0
44.896363911,216.0
44.909494194,196.0
44.922624477,224.0
44.935754760,218.0
44.948885042,216.0
44.962015325,227.0
44.975145608,216.0
44.988275890,209.0
45.001406173,234.0
45.014536456,192.0
45.027666738,204.0
45.040797021,181.0
45.053927304,176.0
45.067057586,199.0
45.080187869,203.0
45.093318152,208.0
45.106448434,201.0
45.119578717,212.0
45.132709000,183.0
45.145839282,227.0
45.158969565,216.0
45.172099848,205.0
45.185230130,227.0
45.198360413,216.0
45.211490696,193.0
45.224620978,236.0
45.237751261,216.0
45.250881544,210.0
45.264011826,208.0
45.277142109,214.0
45.290272392,218.0
45.303402674,240.0
45.316532957,220.0
45.329663240,225.0
45.342793522,233.0
45.355923805,211.0
45.369054088,221.0
45.382184371,200.0
45.395314653,216.0
45.408444936,211.0
45.421575219,203.0
45.434705501,212.0
45.447835784,190.0
45.460966067,207.0
45.474096349,222.0
45.487226632,209.0
45.500356915,203.0
45.513487197,211.0
45.526617480,205.0
45.539747763,189.0
45.552878045,228.0
45.566008328,209.0
45.579138611,194.0
45.592268893,211.0
45.605399176,206.0
45.618529459,202.0
45.631659741,224.0
45.644790024,202.0
45.657920307,213.0
45.671050589,198.0
45.684180872,233.0
45.697311155,190.0
45.710441437,206.0
45.723571720,202.0
45.736702003,213.0
45.749832285,207.0
45.762962568,182.0
45.776092851,205.0
45.789223133,207.0
45.802353416,194.0
45.815483699,205.0
45.828613982,197.0
45.841744264,192.0
45.854874547,209.0
45.868004830,218.0
45.881135112,210.0
45.894265395,202.0
45.907395678,179.0
45.920525960,236.0
45.933656243,191.0
45.946786526,192.0
45.959916808,182.0
45.973047091,193.0
45.986177374,187.0
45.999307656,213.0
46.012437939,227.0
46.025568222,198.0
46.038698504,218.0
46.051828787,220.0
46.064959070,218.0
46.078089352,204.0
46.091219635,198.0
46.104349918,186.0
46.117480200,206.0
46.130610483,215.0
46.143740766,205.0
46.156871048,177.0
46.170001331,189.0
46.183131614,230.0
46.196261896,199.0
46.209392179,198.0
46.222522462,197.0
46.235652744,169.0
46.248783027,180.0
46.261913310,193.0
46.275043593,199.0
46.288173875,207.0
46.301304158,191.0
46.314434441,215.0
46.327564723,187.0
46.340695006,181.0
46.353825289,197.0
46.366955571,183.0
46.380085854,203.0
46.393216137,209.0
46.406346419,185.0
46.419476702,216.0
46.432606985,187.0
46.445737267,178.0
46.458867550,215.0
46.471997833,175.0
46.485128115,199.0
46.498258398,200.0
46.511388681,191.0
46.524518963,205.0
46.537649246,177.0
46.550779529,171.0
46.563909811,219.0
46.577040094,182.0
46.590170377,179.0
46.603300659,179.0
46.616430942,202.0
46.629561225,226.0
46.642691507,189.0
46.655821790,230.0
46.668952073,191.0
46.682082355,218.0
46.695212638,192.0
46.708342921,209.0
46.721473204,175.0
46.734603486,186.0
46.747733769,187.0
46.760864052,219.0
46.773994334,190.0
46.787124617,184.0
46.800254900,176.0
46.813385182,190.0
46.826515465,192.0
46.839645748,231.0
46.852776030,185.0
46.865906313,176.0
46.879036596,203.0
46.892166878,198.0
46.905297161,174.0
46.918427444,172.0
46.931557726,212.0
46.944688009,183.0
46.957818292,195.0
46.970948574,169.0
46.984078857,160.0
46.997209140,166.0
47.010339422,200.0
47.023469705,195.0
47.036599988,178.0
47.049730270,181.0
47.062860553,185.0
47.075990836,199.0
47.089121118,192.0
47.102251401,179.0
47.115381684,192.0
47.128511967,180.0
47.141642249,200.0
47.154772532,208.0
47.167902815,192.0
47.181033097,174.0
47.194163380,201.0
47.207293663,196.0
47.220423945,193.0
47.233554228,174.0
47.246684511,173.0
47.259814793,228.0
47.272945076,203.0
47.286075359,198.0
47.299205641,168.0
47.312335924,179.0
47.325466207,203.0
47.338596489,199.0
47.351726772,171.0
47.364857055,199.0
47.377987337,191.0
47.391117620,217.0
47.404247903,204.0
47.417378185,186.0
47.430508468,197.0
47.443638751,206.0
47.456769033,183.0
47.469899316,183.0
47.483029599,217.0
47.496159881,203.0
47.509290164,211.0
47.522420447,175.0
47.535550729,197.0
47.548681012,192.0
47.561811295,181.0
47.574941578,193.0
47.588071860,222.0
47.601202143,220.0
47.614332426,187.0
47.627462708,235.0
47.640592991,245.0
47.653723274,197.0
47.666853556,233.0
47.679983839,224.0
47.693114122,211.0
47.706244404,214.0
47.719374687,195.0
47.732504970,205.0
47.745635252,205.0
47.758765535,220.0
47.771895818,194.0
47.785026100,196.0
47.798156383,218.0
47.811286666,218.0
47.824416948,205.0
47.837547231,199.0
47.850677514,196.0
47.863807796,207.0
47.876938079,208.0
47.890068362,193.0
47.903198644,186.0
47.916328927,185.0
47.929459210,202.0
47.942589492,196.0
47.955719775,229.0
47.968850058,211.0
47.981980340,173.0
47.995110623,173.0
48.008240906,185.0
48.021371189,193.0
48.034501471,195.0
48.047631754,180.0
48.060762037,202.0
48.073892319,205.0
48.087022602,209.0
48.100152885,182.0
48.113283167,204.0
48.126413450,168.0
48.139543733,179.0
48.152674015,198.0
48.165804298,184.0
48.178934581,179.0
48.192064863,186.0
48.205195146,187.0
48.218325429,196.0
48.231455711,193.0
48.244585994,184.0
48.257716277,171.0
48.270846559,186.0
48.283976842,180.0
48.297107125,212.0
48.310237407,187.0
48.323367690,184.0
48.336497973,177.0
48.349628255,187.0
48.362758538,174.0
48.375888821,198.0
48.389019103,161.0
48.402149386,173.0
48.415279669,188.0
48.428409951,192.0
48.441540234,185.0
48.454670517,219.0
48.467800800,188.0
48.480931082,176.0
48.494061365,199.0
48.507191648,192.0
48.520321930,185.0
48.533452213,202.0
48.546582496,212.0
48.559712778,202.0
48.572843061,193.0
48.585973344,180.0
48.599103626,204.0
48.612233909,192.0
48.625364192,187.0
48.638494474,205.0
48.651624757,188.0
48.664755040,199.0
48.677885322,193.0
48.691015605,225.0
48.704145888,183.0
48.717276170,180.0
48.730406453,180.0
48.743536736,198.0
48.756667018,184.0
48.769797301,205.0
48.782927584,194.0
48.796057866,194.0
48.809188149,192.0
48.822318432,173.0
48.835448714,181.0
48.848578997,183.0
48.861709280,177.0
48.874839562,186.0
48.887969845,193.0
48.901100128,196.0
48.914230411,188.0
48.927360693,172.0
48.940490976,173.0
48.953621259,184.0
48.966751541,199.0
48.979881824,201.0
48.993012107,192.0
49.006142389,179.0
49.019272672,183.0
49.032402955,163.0
49.045533237,168.0
49.058663520,179.0
49.071793803,179.0
49.084924085,195.0
49.098054368,172.0
49.111184651,188.0
49.124314933,174.0
49.137445216,201.0
49.150575499,163.0
49.163705781,184.0
49.176836064,198.0
49.189966347,153.0
49.203096629,180.0
49.216226912,193.0
49.229357195,220.0
49.242487477,204.0
49.255617760,206.0
49.268748043,212.0
49.281878325,204.0
49.295008608,213.0
49.308138891,212.0
49.321269173,169.0
49.334399456,191.0
49.347529739,186.0
49.360660022,176.0
49.373790304,194.0
49.386920587,208.0
49.400050870,194.0
49.413181152,195.0
49.426311435,197.0
49.439441718,188.0
49.452572000,183.0
49.465702283,190.0
49.478832566,182.0
49.491962848,189.0
49.505093131,195.0
49.518223414,210.0
49.531353696,211.0
49.544483979,185.0
49.557614262,199.0
49.570744544,214.0
49.583874827,216.0
49.597005110,210.0
49.610135392,198.0
49.623265675,203.0
49.636395958,193.0
49.649526240,220.0
49.662656523,200.0
49.675786806,183.0
49.688917088,221.0
49.702047371,199.0
49.715177654,224.0
49.728307936,223.0
49.741438219,222.0
49.754568502,276.0
49.767698784,257.0
49.780829067,286.0
49.793959350,268.0
49.807089633,345.0
49.820219915,336.0
49.833350198,412.0
49.846480481,481.0
49.859610763,538.0
49.872741046,517.0
49.885871329,501.0
49.899001611,586.0
49.912131894,572.0
49.925262177,572.0
49.938392459,614.0
49.951522742,551.0
49.964653025,585.0
49.977783307,564.0
49.990913590,584.0
